3655738452.7554515000 	 Frequency 	 1.000000 	 Amplitude  	 0.150000
0.0000000000	-0.0006564724	-0.0122160510
0.0146484400	0.0035643316	-0.0002455743
0.0292968800	0.0050963272	0.0127563024
0.0439453200	0.0080039922	0.0261957439
0.0585937600	0.0099737009	0.0394164051
0.0732422000	0.0122560617	0.0522932679
0.0878906400	0.0159140922	0.0648575868
0.1025390800	0.0181651879	0.0768905798
0.1171875200	0.0209165272	0.0881109561
0.1318359600	0.0233552144	0.0988000063
0.1464844000	0.0243244362	0.1085826757
0.1611328400	0.0266693277	0.1175214733
0.1757812800	0.0286077714	0.1253038534
0.1904297200	0.0301085021	0.1320548341
0.2050781600	0.0332662895	0.1377431607
0.2197266000	0.0343918376	0.1422438148
0.2343750400	0.0347982855	0.1455255419
0.2490234800	0.0349546116	0.1476195963
0.2636719200	0.0327347807	0.1484009599
0.2783203600	0.0313278457	0.1479946509
0.2929688000	0.0298583803	0.1462756509
0.3076172400	0.0275760191	0.1433689784
0.3222656800	0.0262003494	0.1391496151
0.3369141200	0.0243244362	0.1338988520
0.3515625600	0.0211041185	0.1273979076
0.3662110000	0.0180401271	0.1198030546
0.3808594400	0.0139131183	0.1112393113
0.3955078800	0.0100674965	0.1017691870
0.4101563200	0.0073786879	0.0913301729
0.4248047600	0.0042834316	0.0801097963
0.4394532000	0.0020010708	0.0684206028
0.4541016400	0.0008129927	0.0560438107
0.4687500800	-0.0018445505	0.0431044385
0.4833985200	-0.0031889547	0.0298837769
0.4980469600	-0.0048460111	0.0163818260
0.5126954000	-0.0066906586	0.0026610951
0.5273438400	-0.0070658412	-0.0109033617
0.5419922800	-0.0081288584	-0.0244678169
0.5566407200	-0.0093794669	-0.0379385071
0.5712891600	-0.0102861581	-0.0509403782
0.5859376000	-0.0118806839	-0.0635046848
0.6005860400	-0.0133501489	-0.0756314272
0.6152344800	-0.0147883486	-0.0871955875
0.6298829200	-0.0162890787	-0.0978533665
0.6445313600	-0.0172583003	-0.1076672735
0.6591798000	-0.0183525826	-0.1166373086
0.6738282400	-0.0200409040	-0.1246697088
0.6884766800	-0.0211351864	-0.1317019652
0.7031251200	-0.0227609773	-0.1374215334
0.7177735600	-0.0240741161	-0.1420471948
0.7324220000	-0.0247306855	-0.1454851863
0.7470704400	-0.0253559897	-0.1478292714
0.7617188800	-0.0249182767	-0.1487356509
0.7763673200	-0.0239177900	-0.1485793786
0.7910157600	-0.0232612206	-0.1469541463
0.8056642000	-0.0218542862	-0.1441412442
0.8203126400	-0.0207287386	-0.1400781633
0.8349610800	-0.0197907823	-0.1350774481
0.8496095200	-0.0179148697	-0.1287327903
0.8642579600	-0.0159764266	-0.1213254800
0.8789064000	-0.0135377401	-0.1128555169
0.8935548400	-0.0106926059	-0.1033854097
0.9082032800	-0.0085353062	-0.0931651940
0.9228517200	-0.0065343326	-0.0821323607
0.9375001600	-0.0041894416	-0.0702869095
0.9521486000	-0.0027512417	-0.0580976575
0.9667970400	-0.0003438203	-0.0452208053
0.9814454800	0.0018760100	-0.0319688975
0.9960939200	0.0034392707	-0.0185607157
1.0107423600	0.0060342836	-0.0049337507
1.0253908000	0.0079101966	0.0086932158
1.0400392400	0.0099111705	0.0223514384
1.0546876800	0.0130376922	0.0358221353
1.0693361200	0.0151637270	0.0488552704
1.0839845600	0.0176336792	0.0615758616
1.0986330000	0.0202599576	0.0737963815
1.1132814400	0.0213542403	0.0853293029
1.1279298800	0.0238241927	0.0959870983
1.1425783200	0.0260440233	0.1060198038
1.1572267600	0.0280449975	0.1151461284
1.1718752000	0.0315467023	0.1232723084
1.1865236400	0.0335164113	0.1303983435
1.2011720800	0.0350796725	0.1363367063
1.2158205200	0.0360488944	0.1411811604
1.2304689600	0.0351422029	0.1447441783
1.2451174000	0.0347044898	0.1472445418
1.2597658400	0.0343293071	0.1483384508
1.2744142800	0.0329536373	0.1481509236
1.2890627200	0.0326097199	0.1469007418
1.3037111600	0.0315467023	0.1442441056
1.3183596000	0.0287953628	0.1403685422
1.3330080400	0.0263254103	0.1353990700
1.3476564800	0.0223859925	0.1293356891
1.3623049200	0.0181339227	0.1218971086
1.3769533600	0.0153825835	0.1135834016
1.3916018000	0.0117558183	0.1044570770
1.4062502400	0.0091608053	0.0942993535
1.4208986800	0.0072848923	0.0832352493
1.4355471200	0.0041896359	0.0716085646
1.4501955600	0.0018760100	0.0594192994
1.4648440000	-0.0003125550	0.0465111813
1.4794924400	-0.0030951591	0.0334155374
1.4941408800	-0.0038767894	0.0199760952
1.5087893200	-0.0052837241	0.0063491274
1.5234377600	-0.0065030674	-0.0072465843
1.5380862000	-0.0072221673	-0.0209048035
1.5527346400	-0.0088792235	-0.0343442396
1.5673830800	-0.0102236277	-0.0474398746
1.5820315200	-0.0112241145	-0.0603479811
1.5966799600	-0.0128186403	-0.0724122148
1.6113284000	-0.0135690054	-0.0840388844
1.6259768400	-0.0148196138	-0.0950717175
1.6406252800	-0.0164141396	-0.1051356606
1.6552737200	-0.0178523393	-0.1143557318
1.6699221600	-0.0196969867	-0.1226694224
1.6845706000	-0.0216354297	-0.1299204603
1.6992190400	-0.0226984469	-0.1359213188
1.7138674800	-0.0239177900	-0.1409845429
1.7285159200	-0.0244492986	-0.1447038246
1.7431643600	-0.0243242378	-0.1473291999
1.7578128000	-0.0242304421	-0.1487043964
1.7724612400	-0.0240741161	-0.1487043964
1.7871096800	-0.0234488119	-0.1475167267
1.8017581200	-0.0231674250	-0.1450476238
1.8164065600	-0.0217917558	-0.1412970876
1.8310550000	-0.0202284953	-0.1363901359
1.8457034400	-0.0184151131	-0.1305142953
1.8603518800	-0.0155699789	-0.1233882753
1.8750003200	-0.0134752097	-0.1151996027
1.8896487600	-0.0113491753	-0.1060732950
1.9042972000	-0.0089104888	-0.0960093520
1.9189456400	-0.0074097585	-0.0850702824
1.9335940800	-0.0052837241	-0.0735061220
1.9482425200	-0.0029388330	-0.0614106338
1.9628909600	-0.0012192463	-0.0487213089
1.9775394000	0.0015008274	-0.0355944196
1.9921878400	0.0034392707	-0.0221862382
2.0068362800	0.0052526532	-0.0085592736
2.0214847200	0.0081290531	0.0050989470
2.0361331600	0.0099424357	0.0186321511
2.0507816000	0.0124123878	0.0321341021
2.0654300400	0.0148198096	0.0453860185
2.0800784800	0.0161016835	0.0582003729
2.0947269200	0.0185716358	0.0705146561
2.1093753600	0.0208227316	0.0822351044
2.1240238000	0.0230112969	0.0932366994
2.1386722400	0.0268569191	0.1034881864
2.1533206800	0.0293894020	0.1127395291
2.1679691200	0.0315467023	0.1212407633
2.1826175600	0.0333288200	0.1286480892
2.1972660000	0.0335476765	0.1347739792
2.2119144400	0.0341417158	0.1400559968
2.2265628800	0.0349546116	0.1439315602
2.2412113200	0.0347670202	0.1467132145
2.2558597600	0.0355799160	0.1482134327
2.2705082000	0.0357049769	0.1483697054
2.2851566400	0.0338603288	0.1473383054
2.2998050800	0.0321720067	0.1450254692
2.3144535200	0.0290454845	0.1414937058
2.3291019600	0.0253249232	0.1368367790
2.3437504000	0.0226986447	0.1309296706
2.3583988400	0.0193220010	0.1240224173
2.3730472800	0.0165706618	0.1159274919
2.3876957200	0.0146634835	0.1068011672
2.4023441600	0.0110054530	0.0969559888
2.4169926000	0.0079727270	0.0862356843
2.4316410400	0.0050337967	0.0747340174
2.4462894800	0.0014070318	0.0626697700
2.4609379200	-0.0000624333	0.0500429423
2.4755863600	-0.0020321418	0.0370723161
2.4902348000	-0.0038455242	0.0236016190
2.5048832400	-0.0043770329	0.0099433963
2.5195316800	-0.0060340892	-0.0035898068
2.5341801200	-0.0072846977	-0.0172792809
2.5488285600	-0.0082851845	-0.0307499719
2.5634770000	-0.0098484451	-0.0439393708
2.5781254400	-0.0105362798	-0.0568787323
2.5927738800	-0.0116305622	-0.0693180203
2.6074223200	-0.0131000272	-0.0810697081
2.6220707600	-0.0144131661	-0.0921650506
2.6367192000	-0.0163516092	-0.1026040477
2.6513676400	-0.0182587870	-0.1120429005
2.6660160800	-0.0198220475	-0.1205753726
2.6806645200	-0.0213227776	-0.1280451919
2.6953129600	-0.0222607339	-0.1345148676
2.7099614000	-0.0227609773	-0.1397343641
2.7246098400	-0.0237301988	-0.1438286995
2.7392582800	-0.0239177900	-0.1467978740
2.7539067200	-0.0243555030	-0.1483918518
2.7685551600	-0.0250120724	-0.1487669054
2.7832036000	-0.0243867682	-0.1478605258
2.7978520400	-0.0236676684	-0.1458914944
2.8125004800	-0.0222294687	-0.1424535029
2.8271489200	-0.0198845780	-0.1379528594
2.8417973600	-0.0182275218	-0.1321082733
2.8564458000	-0.0160389570	-0.1253260527
2.8710942400	-0.0138503923	-0.1173874161
2.8857426800	-0.0124747229	-0.1085736534
2.9003911200	-0.0103174233	-0.0987284920
2.9150395600	-0.0080975932	-0.0881019676
2.9296880000	-0.0059402935	-0.0767253343
2.9443364400	-0.0032827504	-0.0646298466
2.9589848800	-0.0010316550	-0.0522530670
2.9736333200	0.0006566666	-0.0391261781
2.9882817600	0.0032829447	-0.0258117606
3.0029302000	0.0050963272	-0.0122160510
3.0175786400	0.0073474227	0.0015359327
3.0322270800	0.0096297835	0.0151316455
3.0468755200	0.0110367183	0.0286335962
3.0615239600	0.0133503443	0.0418230031
3.0761724000	0.0156952357	0.0548873933
3.0908208400	0.0176649444	0.0672329308
3.1054692800	0.0211979142	0.0792971786
3.1201177200	0.0240743144	0.0904237915
3.1347661600	0.0263254103	0.1007377874
3.1494146000	0.0289829541	0.1103641843
3.1640630400	0.0299209108	0.1190529456
3.1787114800	0.0311715196	0.1267415622
3.1933599200	0.0329536373	0.1332425067
3.2080083600	0.0337352679	0.1387745606
3.2226568000	0.0357675074	0.1429939239
3.2373052400	0.0369868511	0.1460881237
3.2519536800	0.0366429336	0.1479321418
3.2666021200	0.0360176292	0.1484009599
3.2812505600	0.0336727374	0.1477133600
3.2958990000	0.0308901326	0.1458380873
3.3105474400	0.0289829541	0.1425251057
3.3251958800	0.0259502277	0.1381807243
3.3398443200	0.0240117840	0.1326174159
3.3544927600	0.0221671360	0.1258976897
3.3691412000	0.0184153097	0.1181153095
3.3837896400	0.0153200531	0.1093952937
3.3984380800	0.0117870835	0.0998001514
3.4130865200	0.0074412183	0.0892361193
3.4277349600	0.0051588576	0.0779532338
3.4423834000	0.0025638447	0.0659514952
3.4570318400	0.0001564232	0.0534809398
3.4716802800	-0.0006564724	0.0404790588
3.4863287200	-0.0028763026	0.0271646339
3.5009771600	-0.0043770329	0.0136314288
3.5156256000	-0.0054400501	0.0000044617
3.5302740400	-0.0071596368	-0.0136850128
3.5449224800	-0.0078474715	-0.0272807222
3.5595709200	-0.0087854279	-0.0405951395
3.5742193600	-0.0100360364	-0.0535032468
3.5888678000	-0.0111928493	-0.0660675532
3.6035162400	-0.0128499055	-0.0779755139
3.6181646800	-0.0147883486	-0.0893521470
3.6328131200	-0.0161952831	-0.0999161623
3.6474615600	-0.0178523393	-0.1095425422
3.6621100000	-0.0191342129	-0.1184500683
3.6767584400	-0.0200096388	-0.1261386691
3.6914068800	-0.0214791037	-0.1327958717
3.7060553200	-0.0225733860	-0.1384529309
3.7207037600	-0.0234488119	-0.1428598110
3.7353522000	-0.0246994203	-0.1460477667
3.7500006400	-0.0251683984	-0.1480480526
3.7646490800	-0.0251371332	-0.1488919232
3.7792975200	-0.0246681551	-0.1481730705
3.7939459600	-0.0231674250	-0.1465165838
3.8085944000	-0.0217917558	-0.1433911370
3.8232428400	-0.0204473517	-0.1392968016
3.8378912800	-0.0183525826	-0.1337647603
3.8525397200	-0.0173520959	-0.1272950846
3.8671881600	-0.0153511224	-0.1196689928
3.8818366000	-0.0131000272	-0.1110115027
3.8964850400	-0.0111303188	-0.1014476319
3.9111334800	-0.0080663280	-0.0910086346
3.9257819200	-0.0058464979	-0.0797882742
3.9404303600	-0.0038455242	-0.0678803137
3.9550788000	-0.0014381028	-0.0554722800
3.9697272400	0.0001564232	-0.0426266819
3.9843756800	0.0023449882	-0.0292810104
3.9990241200	0.0047524098	-0.0157790647
4.0136725600	0.0062844054	-0.0021208449
4.0283210000	0.0085355009	0.0114748674
4.0429694400	0.0106928009	0.0250393267
4.0576178800	0.0125374487	0.0384787695
4.0722663200	0.0158515618	0.0514493958
4.0869147600	0.0182277184	0.0640137146
4.1015632000	0.0208227316	0.0760154530
4.1162116400	0.0234177448	0.0873921019
4.1308600800	0.0248872102	0.0981749156
4.1455085200	0.0267631234	0.1079575850
4.1601569600	0.0290454845	0.1169588916
4.1748054000	0.0306087456	0.1248037808
4.1894538400	0.0334851461	0.1316172705
4.2041022800	0.0356424465	0.1373368516
4.2187507200	0.0362677509	0.1419312694
4.2333991600	0.0368930554	0.1454005237
4.2480476000	0.0359863639	0.1475883418
4.2626960400	0.0341729810	0.1485259781
4.2773444800	0.0334226156	0.1479946509
4.2919929200	0.0313591110	0.1463694146
4.3066413600	0.0300147064	0.1435252511
4.3212898000	0.0291705454	0.1394934151
4.3359382400	0.0257939016	0.1343676702
4.3505866800	0.0228237056	0.1278354711
4.3652351200	0.0191656749	0.1203656363
4.3798835600	0.0145384226	0.1118956566
4.3945320000	0.0117870835	0.1023942777
4.4091804400	0.0085042357	0.0920177726
4.4238288800	0.0056591010	0.0810161777
4.4384773200	0.0040958403	0.0692019660
4.4531257600	0.0015320926	0.0568251738
4.4677742000	-0.0004063507	0.0440108196
4.4824226400	-0.0020321418	0.0308526669
4.4970710800	-0.0042519720	0.0172882069
4.5117195200	-0.0052837241	0.0036612395
4.5263679600	-0.0062529457	-0.0100907445
4.5410164000	-0.0076598802	-0.0236239453
4.5556648400	-0.0085978366	-0.0370321266
4.5703132800	-0.0098797103	-0.0500652523
4.5849617200	-0.0115367666	-0.0627858315
4.5996101600	-0.0127561098	-0.0748188105
4.6142586000	-0.0143193704	-0.0865079888
4.6289070400	-0.0155074485	-0.0971657679
4.6435554800	-0.0165392004	-0.1070734384
4.6582039200	-0.0181962566	-0.1161997460
4.6728523600	-0.0196031911	-0.1241383827
4.6875008000	-0.0210101255	-0.1312644026
4.7021492400	-0.0229173033	-0.1370777342
4.7167976800	-0.0239803205	-0.1418596680
4.7314461200	-0.0246994203	-0.1452664051
4.7460945600	-0.0252621940	-0.1476104901
4.7607430000	-0.0244180334	-0.1487669054
4.7753914400	-0.0240115857	-0.1485481241
4.7900398800	-0.0232299554	-0.1470791642
4.8046883200	-0.0218542862	-0.1443287710
4.8193367600	-0.0214478385	-0.1404219625
4.8339852000	-0.0199471084	-0.1353899928
4.8486336400	-0.0178523393	-0.1291078440
4.8632820800	-0.0161952831	-0.1218255516
4.8779305200	-0.0131625576	-0.1134493520
4.8925789600	-0.0106926059	-0.1041355172
4.9072274000	-0.0087541627	-0.0938215382
4.9218758400	-0.0063467413	-0.0829137229
4.9365242800	-0.0046896850	-0.0711620352
4.9511727200	-0.0026887113	-0.0590352923
4.9658211600	-0.0001249638	-0.0460021677
4.9804696000	0.0014695622	-0.0329377870
4.9951180400	0.0038769838	-0.0195608598
5.0097664800	0.0061280793	-0.0057776224
5.0244149200	0.0075350140	0.0077243259
5.0390633600	0.0105364748	0.0214138029
5.0537118000	0.0128501009	0.0348532452
5.0683602400	0.0152887878	0.0479801438
5.0830086800	0.0180401271	0.0607632439
5.0976571200	0.0193220010	0.0728900002
5.1123055600	0.0215105664	0.0844541760
5.1269540000	0.0239492535	0.0953620076
5.1416024400	0.0259189624	0.1054259676
5.1562508800	0.0290767498	0.1146148013
5.1708993200	0.0321407415	0.1227722357
5.1855477600	0.0337352679	0.1299295253
5.2001962000	0.0353610595	0.1359303973
5.2148446400	0.0354548551	0.1408061058
5.2294930800	0.0347982855	0.1445566510
5.2441415200	0.0353610595	0.1470570145
5.2587899600	0.0343293071	0.1484322145
5.2734384000	0.0340791853	0.1482134327
5.2880868400	0.0342042462	0.1469945054
5.3027352800	0.0317968241	0.1445253965
5.3173837200	0.0295769933	0.1407435968
5.3320321600	0.0263879407	0.1356491064
5.3466806000	0.0216981577	0.1296482345
5.3613290400	0.0190718793	0.1223971813
5.3759774800	0.0156952357	0.1141459832
5.3906259200	0.0125374487	0.1050821677
5.4052743600	0.0107553313	0.0948931896
5.4199228000	0.0075662792	0.0840478671
5.4345712400	0.0049087359	0.0723586732
5.4492196800	0.0023762534	0.0602006625
5.4638681200	-0.0006252072	0.0474488169
5.4785165600	-0.0022197331	0.0342906639
5.4931650000	-0.0035016069	0.0207887126
5.5078134400	-0.0052211936	0.0073180173
5.5224618800	-0.0059715587	-0.0064027126
5.5371103200	-0.0073159629	-0.0201234409
5.5517587600	-0.0086916323	-0.0335003680
5.5664072000	-0.0096295886	-0.0466897666
5.5810556400	-0.0110677884	-0.0594728552
5.5957040800	-0.0122871317	-0.0716621071
5.6103525200	-0.0130062315	-0.0833512857
5.6250009600	-0.0147258182	-0.0943841189
5.6396494000	-0.0161952831	-0.1045418255
5.6542978400	-0.0177898089	-0.1137618967
5.6689462800	-0.0199471084	-0.1220443329
5.6835947200	-0.0213227776	-0.1294828977
5.6982431600	-0.0227609773	-0.1356712830
5.7128916000	-0.0238865248	-0.1406407438
5.7275400400	-0.0239177900	-0.1445788068
5.7421884800	-0.0241991769	-0.1471104186
5.7568369200	-0.0243555030	-0.1485793786
5.7714853600	-0.0237927292	-0.1487669054
5.7861338000	-0.0240115857	-0.1476104901
5.8007822400	-0.0232924859	-0.1452038961
5.8154306800	-0.0218542862	-0.1416408868
5.8300791200	-0.0205098822	-0.1368902074
5.8447275600	-0.0178836045	-0.1309831123
5.8593760000	-0.0157263049	-0.1238258380
5.8740244400	-0.0135377401	-0.1158872012
5.8886728800	-0.0112553797	-0.1066671301
5.9033213200	-0.0096608539	-0.0967282051
5.9179697600	-0.0075973498	-0.0859141536
5.9326182000	-0.0052211936	-0.0743499932
5.9472666400	-0.0033140156	-0.0621607417
5.9619150800	-0.0006877376	-0.0494089079
5.9765635200	0.0015008274	-0.0364382911
5.9912119600	0.0031891490	-0.0229676008
6.0058604000	0.0055653054	-0.0094969089
6.0205088400	0.0079101966	0.0042238207
6.0351572800	0.0099737009	0.0177882792
6.0498057200	0.0124436530	0.0312277211
6.0644541600	0.0141319748	0.0444796374
6.0791026000	0.0161016835	0.0572939917
6.0937510400	0.0186341662	0.0697020384
6.1083994800	0.0206976707	0.0813599775
6.1230479200	0.0238867231	0.0926116087
6.1376963600	0.0272321017	0.1027693321
6.1523448000	0.0293268715	0.1122394565
6.1669932400	0.0315779675	0.1206469271
6.1816416800	0.0325471894	0.1281480165
6.1962901200	0.0329536373	0.1344614338
6.2109385600	0.0345794289	0.1397434514
6.2255870000	0.0349233463	0.1436502693
6.2402354400	0.0357049769	0.1466507055
6.2548838800	0.0370181163	0.1481196690
6.2695323200	0.0357362421	0.1484634690
6.2841807600	0.0344231028	0.1474945782
6.2988292000	0.0321407415	0.1451817419
6.3134776400	0.0281700583	0.1417437421
6.3281260800	0.0259189624	0.1371805789
6.3427745200	0.0229175013	0.1313984888
6.3574229600	0.0200098359	0.1245537445
6.3720714000	0.0183215140	0.1164900735
6.3867198400	0.0146947487	0.1075200215
6.4013682800	0.0115369617	0.0977060976
6.4160167200	0.0084417053	0.0869857930
6.4306651600	0.0044710228	0.0756403987
6.4453136000	0.0022824578	0.0634823876
6.4599620400	0.0000938927	0.0508555599
6.4746104800	-0.0020634070	0.0378224246
6.4892589200	-0.0028450374	0.0245080000
6.5039073600	-0.0044082981	0.0108810317
6.5185558000	-0.0059090283	-0.0026834261
6.5332042400	-0.0069720456	-0.0164041548
6.5478526800	-0.0082226541	-0.0298123369
6.5625011200	-0.0090980800	-0.0431892629
6.5771495600	-0.0099735060	-0.0560661154
6.5917980000	-0.0115367666	-0.0684428945
6.6064464400	-0.0128499055	-0.0802883460
6.6210948800	-0.0144444313	-0.0915712154
6.6357433200	-0.0166329961	-0.1018851946
6.6503917600	-0.0180086653	-0.1114803199
6.6650402000	-0.0196657215	-0.1200440465
6.6796886400	-0.0211039212	-0.1276076293
6.6943370800	-0.0217292254	-0.1340773050
6.7089855200	-0.0228235077	-0.1394530739
6.7236339600	-0.0236051379	-0.1435786638
6.7382824000	-0.0237927292	-0.1464853293
6.7529308400	-0.0249182767	-0.1483918518
6.7675792800	-0.0249495420	-0.1487669054
6.7822277200	-0.0245743594	-0.1481105616
6.7968761600	-0.0239177900	-0.1459852578
6.8115246000	-0.0218855514	-0.1427660476
6.8261730400	-0.0200409040	-0.1382966585
6.8408214800	-0.0182900522	-0.1326708538
6.8554699200	-0.0160702223	-0.1258573788
6.8701183600	-0.0146007573	-0.1180125056
6.8847668000	-0.0127248446	-0.1092925064
6.8994152400	-0.0103174233	-0.0993848361
6.9140636800	-0.0084102454	-0.0888520752
6.9287121200	-0.0055963762	-0.0775692055
6.9433605600	-0.0032202200	-0.0655049723
6.9580090000	-0.0014068375	-0.0529719204
6.9726574400	0.0010318492	-0.0399700495
6.9873058800	0.0028452316	-0.0267493957
7.0019543200	0.0049087359	-0.0130911772
7.0166027600	0.0073474227	0.0004732794
7.0312512000	0.0090357444	0.0141940101
7.0458996400	0.0111617791	0.0276959607
7.0605480800	0.0134441400	0.0410728946
7.0751965200	0.0152887878	0.0540122667
7.0898449600	0.0183215140	0.0664203131
7.1044934000	0.0214480360	0.0783595427
7.1191418400	0.0238241927	0.0897361918
7.1337902800	0.0265130016	0.1001439513
7.1484387200	0.0280449975	0.1097078390
7.1630871600	0.0292018107	0.1184903640
7.1777356000	0.0314841719	0.1262102351
7.1923840400	0.0326097199	0.1328674522
7.2070324800	0.0346419593	0.1384620152
7.2216809200	0.0369868511	0.1427751421
7.2363293600	0.0368930554	0.1459318510
7.2509778000	0.0369243206	0.1478071236
7.2656262400	0.0355799160	0.1484947236
7.2802746800	0.0326097199	0.1478383781
