3655819898.7808977000 	 Frequency 	 2.000000 	 Amplitude  	 0.040000
0.0000000000	-0.0000374142	-0.0068482453
0.0150000000	0.0030872746	0.0000230990
0.0300000000	0.0057432601	0.0067382765
0.0450000000	0.0079305422	0.0139219548
0.0600000000	0.0093366522	0.0203247985
0.0750000000	0.0112114655	0.0261029747
0.0900000000	0.0138674510	0.0312564832
0.1050000000	0.0144923888	0.0350044894
0.1200000000	0.0148048577	0.0376593271
0.1350000000	0.0149610921	0.0385963287
0.1500000000	0.0140236854	0.0384401618
0.1650000000	0.0119926377	0.0368784925
0.1800000000	0.0101178244	0.0340674878
0.1950000000	0.0082430111	0.0300071478
0.2100000000	0.0051183223	0.0248536393
0.2250000000	0.0026185713	0.0189192962
0.2400000000	0.0008999925	0.0120479517
0.2550000000	-0.0020684619	0.0048642735
0.2700000000	-0.0034745718	-0.0021632378
0.2850000000	-0.0055056195	-0.0096592497
0.3000000000	-0.0070679639	-0.0165305939
0.3150000000	-0.0086303082	-0.0230896042
0.3300000000	-0.0095677149	-0.0285554461
0.3450000000	-0.0101926526	-0.0329281195
0.3600000000	-0.0109738248	-0.0363637915
0.3750000000	-0.0108175904	-0.0383939613
0.3900000000	-0.0101926526	-0.0391747958
0.4050000000	-0.0098801837	-0.0388624620
0.4200000000	-0.0083178394	-0.0365199584
0.4350000000	-0.0067554950	-0.0333966202
0.4500000000	-0.0047244473	-0.0288677799
0.4650000000	-0.0034745718	-0.0232457711
0.4800000000	-0.0011310552	-0.0171552616
0.4950000000	0.0010562269	-0.0101277505
0.5100000000	0.0029310402	-0.0031002393
0.5250000000	0.0046496190	0.0043957727
0.5400000000	0.0080867767	0.0117356179
0.5550000000	0.0098053555	0.0184507955
0.5700000000	0.0121488721	0.0243851385
0.5850000000	0.0138674510	0.0295386470
0.6000000000	0.0151173265	0.0335989871
0.6150000000	0.0144923888	0.0367223256
0.6300000000	0.0146486232	0.0382839948
0.6450000000	0.0138674510	0.0387524956
0.6600000000	0.0124613410	0.0378154941
0.6750000000	0.0105865277	0.0350044894
0.6900000000	0.0094928866	0.0317249840
0.7050000000	0.0063681978	0.0268838093
0.7200000000	0.0038684468	0.0209494662
0.7350000000	0.0021498680	0.0143904555
0.7500000000	-0.0001936486	0.0075191111
0.7650000000	-0.0031621029	-0.0002892348
0.7800000000	-0.0048806817	-0.0074729129
0.7950000000	-0.0067554950	-0.0141880902
0.8100000000	-0.0081616049	-0.0209032675
0.8250000000	-0.0097239493	-0.0266814431
0.8400000000	-0.0105051215	-0.0315226173
0.8550000000	-0.0106613559	-0.0354267900
0.8700000000	-0.0108175904	-0.0379254605
0.8850000000	-0.0100364182	-0.0388624620
0.9000000000	-0.0092552460	-0.0390186289
0.9150000000	-0.0086303082	-0.0376131267
0.9300000000	-0.0070679639	-0.0344897886
0.9450000000	-0.0055056195	-0.0305856159
0.9600000000	-0.0044119784	-0.0252759410
0.9750000000	-0.0028496341	-0.0194977653
0.9900000000	0.0001188203	-0.0126264211
1.0050000000	0.0019936335	-0.0055989100
1.0200000000	0.0044933846	0.0018971020
1.0350000000	0.0073056045	0.0092369472
1.0500000000	0.0101178244	0.0159521247
1.0650000000	0.0113676999	0.0223549685
1.0800000000	0.0127738099	0.0279769778
1.0950000000	0.0138674510	0.0325058186
1.1100000000	0.0140236854	0.0359414909
1.1250000000	0.0140236854	0.0379716610
1.1400000000	0.0143361543	0.0390648295
1.1550000000	0.0130862788	0.0379716610
1.1700000000	0.0115239344	0.0360976579
1.1850000000	0.0102740589	0.0328181524
1.2000000000	0.0082430111	0.0286016455
1.2150000000	0.0049620879	0.0228234693
1.2300000000	0.0026185713	0.0165767924
1.2450000000	0.0001188203	0.0097054479
1.2600000000	-0.0030058685	0.0023656028
1.2750000000	-0.0055056195	-0.0048180754
1.2900000000	-0.0064430261	-0.0120017534
1.3050000000	-0.0080053705	-0.0188730976
1.3200000000	-0.0094114804	-0.0249636071
1.3350000000	-0.0100364182	-0.0301171151
1.3500000000	-0.0101926526	-0.0344897886
1.3650000000	-0.0103488870	-0.0373007929
1.3800000000	-0.0101926526	-0.0388624620
1.3950000000	-0.0100364182	-0.0393309627
1.4100000000	-0.0092552460	-0.0382377943
1.4250000000	-0.0086303082	-0.0355829569
1.4400000000	-0.0064430261	-0.0318349511
1.4550000000	-0.0048806817	-0.0271499439
1.4700000000	-0.0030058685	-0.0213717682
1.4850000000	-0.0001936486	-0.0149689248
1.5000000000	0.0024623369	-0.0077852468
1.5150000000	0.0038684468	-0.0006015686
1.5300000000	0.0063681978	0.0067382765
1.5450000000	0.0087117144	0.0139219548
1.5600000000	0.0101178244	0.0203247985
1.5750000000	0.0113676999	0.0264153085
1.5900000000	0.0135549821	0.0311003163
1.6050000000	0.0148048577	0.0350044894
1.6200000000	0.0151173265	0.0375031602
1.6350000000	0.0151173265	0.0387524956
1.6500000000	0.0143361543	0.0384401618
1.6650000000	0.0124613410	0.0370346594
1.6800000000	0.0107427622	0.0340674878
1.6950000000	0.0083992456	0.0300071478
1.7100000000	0.0054307912	0.0246974724
1.7250000000	0.0024623369	0.0187631293
1.7400000000	0.0005875236	0.0122041186
1.7550000000	-0.0020684619	0.0050204404
1.7700000000	-0.0042557440	-0.0024755716
1.7850000000	-0.0055056195	-0.0096592497
1.8000000000	-0.0067554950	-0.0166867608
1.8150000000	-0.0086303082	-0.0230896042
1.8300000000	-0.0092552460	-0.0283992791
1.8450000000	-0.0105051215	-0.0332404533
1.8600000000	-0.0109738248	-0.0365199584
1.8750000000	-0.0112862937	-0.0387062951
1.8900000000	-0.0106613559	-0.0394871296
1.9050000000	-0.0098801837	-0.0387062951
1.9200000000	-0.0084740738	-0.0365199584
1.9350000000	-0.0067554950	-0.0333966202
1.9500000000	-0.0045682129	-0.0288677799
1.9650000000	-0.0031621029	-0.0237142719
1.9800000000	-0.0012872897	-0.0171552616
1.9950000000	0.0008999925	-0.0101277505
2.0100000000	0.0029310402	-0.0031002393
2.0250000000	0.0048058534	0.0043957727
2.0400000000	0.0077743078	0.0112671171
2.0550000000	0.0098053555	0.0181384616
2.0700000000	0.0115239344	0.0243851385
2.0850000000	0.0135549821	0.0296948139
2.1000000000	0.0148048577	0.0335989871
2.1150000000	0.0144923888	0.0367223256
2.1300000000	0.0148048577	0.0384401618
2.1450000000	0.0137112166	0.0389086626
2.1600000000	0.0126175755	0.0379716610
2.1750000000	0.0099615900	0.0351606563
2.1900000000	0.0090241833	0.0315688170
2.2050000000	0.0068369012	0.0267276424
2.2200000000	0.0043371501	0.0211056332
2.2350000000	0.0016811647	0.0142342886
2.2500000000	-0.0005061175	0.0072067772
2.2650000000	-0.0030058685	0.0001792659
2.2800000000	-0.0055056195	-0.0073167460
2.2950000000	-0.0061305572	-0.0141880902
2.3100000000	-0.0084740738	-0.0210594344
2.3250000000	-0.0101926526	-0.0265252762
2.3400000000	-0.0106613559	-0.0316787842
2.3550000000	-0.0112862937	-0.0354267900
2.3700000000	-0.0108175904	-0.0379254605
2.3850000000	-0.0105051215	-0.0391747958
2.4000000000	-0.0092552460	-0.0393309627
2.4150000000	-0.0084740738	-0.0377692936
2.4300000000	-0.0073804327	-0.0346459555
2.4450000000	-0.0056618539	-0.0305856159
2.4600000000	-0.0044119784	-0.0252759410
2.4750000000	-0.0030058685	-0.0194977653
2.4900000000	-0.0003498830	-0.0126264211
2.5050000000	0.0024623369	-0.0054427430
2.5200000000	0.0041809157	0.0020532689
2.5350000000	0.0074618389	0.0090807803
2.5500000000	0.0098053555	0.0159521247
2.5650000000	0.0110552311	0.0225111355
2.5800000000	0.0127738099	0.0281331447
2.5950000000	0.0140236854	0.0325058186
2.6100000000	0.0143361543	0.0360976579
2.6250000000	0.0138674510	0.0381278279
2.6400000000	0.0140236854	0.0387524956
2.6550000000	0.0137112166	0.0382839948
2.6700000000	0.0116801688	0.0360976579
2.6850000000	0.0102740589	0.0328181524
2.7000000000	0.0079305422	0.0284454785
2.7150000000	0.0051183223	0.0228234693
2.7300000000	0.0023061024	0.0165767924
2.7450000000	-0.0000374142	0.0095492810
2.7600000000	-0.0028496341	0.0025217697
2.7750000000	-0.0053493851	-0.0048180754
2.7900000000	-0.0067554950	-0.0120017534
2.8050000000	-0.0080053705	-0.0188730976
2.8200000000	-0.0094114804	-0.0246512733
2.8350000000	-0.0100364182	-0.0301171151
2.8500000000	-0.0098801837	-0.0343336217
2.8650000000	-0.0103488870	-0.0371446260
2.8800000000	-0.0101926526	-0.0388624620
2.8950000000	-0.0094114804	-0.0393309627
2.9100000000	-0.0092552460	-0.0382377943
2.9250000000	-0.0084740738	-0.0355829569
2.9400000000	-0.0067554950	-0.0318349511
2.9550000000	-0.0048806817	-0.0271499439
2.9700000000	-0.0031621029	-0.0216841020
2.9850000000	-0.0005061175	-0.0149689248
3.0000000000	0.0019936335	-0.0077852468
3.0150000000	0.0041809157	-0.0002892348
3.0300000000	0.0060557290	0.0068944434
3.0450000000	0.0088679489	0.0139219548
3.0600000000	0.0102740589	0.0203247985
3.0750000000	0.0113676999	0.0262591416
3.0900000000	0.0130862788	0.0311003163
3.1050000000	0.0144923888	0.0350044894
3.1200000000	0.0151173265	0.0373469933
3.1350000000	0.0149610921	0.0385963287
3.1500000000	0.0144923888	0.0385963287
3.1650000000	0.0124613410	0.0368784925
3.1800000000	0.0104302933	0.0342236548
3.1950000000	0.0083992456	0.0300071478
3.2100000000	0.0052745568	0.0246974724
3.2250000000	0.0023061024	0.0187631293
3.2400000000	0.0004312891	0.0120479517
3.2550000000	-0.0020684619	0.0048642735
3.2700000000	-0.0039432751	-0.0023194047
3.2850000000	-0.0056618539	-0.0096592497
3.3000000000	-0.0070679639	-0.0163744270
3.3150000000	-0.0087865427	-0.0230896042
3.3300000000	-0.0098801837	-0.0285554461
3.3450000000	-0.0101926526	-0.0332404533
3.3600000000	-0.0108175904	-0.0363637915
3.3750000000	-0.0112862937	-0.0385501282
3.3900000000	-0.0108175904	-0.0393309627
3.4050000000	-0.0094114804	-0.0385501282
3.4200000000	-0.0086303082	-0.0363637915
3.4350000000	-0.0069117294	-0.0333966202
3.4500000000	-0.0045682129	-0.0288677799
3.4650000000	-0.0034745718	-0.0234019380
3.4800000000	-0.0015997586	-0.0171552616
3.4950000000	0.0012124613	-0.0102839174
3.5100000000	0.0029310402	-0.0029440724
3.5250000000	0.0048058534	0.0043957727
3.5400000000	0.0074618389	0.0114232840
3.5550000000	0.0098053555	0.0181384616
3.5700000000	0.0118364033	0.0243851385
3.5850000000	0.0137112166	0.0296948139
3.6000000000	0.0144923888	0.0337551540
3.6150000000	0.0149610921	0.0368784925
3.6300000000	0.0146486232	0.0385963287
3.6450000000	0.0144923888	0.0387524956
3.6600000000	0.0124613410	0.0373469933
3.6750000000	0.0101178244	0.0351606563
3.6900000000	0.0082430111	0.0315688170
3.7050000000	0.0065244323	0.0265714755
3.7200000000	0.0037122124	0.0209494662
3.7350000000	0.0016811647	0.0143904555
3.7500000000	0.0001188203	0.0072067772
3.7650000000	-0.0030058685	0.0000230990
3.7800000000	-0.0053493851	-0.0073167460
3.7950000000	-0.0065992606	-0.0143442571
3.8100000000	-0.0083178394	-0.0210594344
3.8250000000	-0.0101926526	-0.0266814431
3.8400000000	-0.0105051215	-0.0315226173
3.8550000000	-0.0109738248	-0.0355829569
3.8700000000	-0.0114425281	-0.0380816274
3.8850000000	-0.0105051215	-0.0391747958
3.9000000000	-0.0092552460	-0.0390186289
3.9150000000	-0.0083178394	-0.0373007929
3.9300000000	-0.0075366672	-0.0346459555
3.9450000000	-0.0056618539	-0.0304294490
3.9600000000	-0.0044119784	-0.0254321079
3.9750000000	-0.0030058685	-0.0194977653
3.9900000000	-0.0006623519	-0.0127825880
4.0050000000	0.0023061024	-0.0055989100
4.0200000000	0.0044933846	0.0020532689
4.0350000000	0.0073056045	0.0089246133
4.0500000000	0.0098053555	0.0161082917
4.0650000000	0.0113676999	0.0223549685
4.0800000000	0.0123051066	0.0279769778
4.0950000000	0.0140236854	0.0323496517
4.1100000000	0.0143361543	0.0357853240
4.1250000000	0.0138674510	0.0379716610
4.1400000000	0.0137112166	0.0387524956
4.1550000000	0.0132425132	0.0379716610
4.1700000000	0.0116801688	0.0360976579
4.1850000000	0.0099615900	0.0329743194
4.2000000000	0.0079305422	0.0281331447
4.2150000000	0.0052745568	0.0229796362
4.2300000000	0.0024623369	0.0167329593
4.2450000000	-0.0000374142	0.0097054479
4.2600000000	-0.0026933996	0.0025217697
4.2750000000	-0.0055056195	-0.0046619085
4.2900000000	-0.0069117294	-0.0118455865
4.3050000000	-0.0083178394	-0.0188730976
4.3200000000	-0.0098801837	-0.0249636071
4.3350000000	-0.0098801837	-0.0299609482
4.3500000000	-0.0101926526	-0.0341774548
4.3650000000	-0.0098801837	-0.0371446260
4.3800000000	-0.0101926526	-0.0388624620
4.3950000000	-0.0097239493	-0.0393309627
4.4100000000	-0.0090990115	-0.0380816274
4.4250000000	-0.0086303082	-0.0357391238
4.4400000000	-0.0073804327	-0.0318349511
4.4550000000	-0.0048806817	-0.0271499439
4.4700000000	-0.0031621029	-0.0212156013
4.4850000000	-0.0006623519	-0.0148127579
4.5000000000	0.0023061024	-0.0077852468
4.5150000000	0.0044933846	-0.0006015686
4.5300000000	0.0062119634	0.0067382765
4.5450000000	0.0087117144	0.0137657879
4.5600000000	0.0101178244	0.0203247985
4.5750000000	0.0113676999	0.0261029747
4.5900000000	0.0129300444	0.0311003163
4.6050000000	0.0146486232	0.0348483225
4.6200000000	0.0146486232	0.0373469933
4.6350000000	0.0144923888	0.0390648295
4.6500000000	0.0143361543	0.0385963287
4.6650000000	0.0126175755	0.0370346594
4.6800000000	0.0102740589	0.0339113209
4.6950000000	0.0083992456	0.0301633147
4.7100000000	0.0055870256	0.0248536393
4.7250000000	0.0024623369	0.0190754632
4.7400000000	0.0001188203	0.0120479517
4.7550000000	-0.0017559930	0.0050204404
4.7700000000	-0.0042557440	-0.0023194047
4.7850000000	-0.0058180884	-0.0096592497
4.8000000000	-0.0067554950	-0.0166867608
4.8150000000	-0.0084740738	-0.0230896042
4.8300000000	-0.0098801837	-0.0287116130
4.8450000000	-0.0101926526	-0.0330842864
4.8600000000	-0.0105051215	-0.0363637915
4.8750000000	-0.0111300592	-0.0387062951
4.8900000000	-0.0111300592	-0.0393309627
4.9050000000	-0.0094114804	-0.0385501282
4.9200000000	-0.0089427771	-0.0366761253
4.9350000000	-0.0073804327	-0.0332404533
4.9500000000	-0.0048806817	-0.0288677799
4.9650000000	-0.0031621029	-0.0237142719
4.9800000000	-0.0014435241	-0.0171552616
4.9950000000	0.0010562269	-0.0104400843
5.0100000000	0.0030872746	-0.0031002393
5.0250000000	0.0046496190	0.0042396058
5.0400000000	0.0071493700	0.0114232840
5.0550000000	0.0098053555	0.0181384616
5.0700000000	0.0113676999	0.0243851385
5.0850000000	0.0132425132	0.0296948139
5.1000000000	0.0149610921	0.0339113209
5.1150000000	0.0151173265	0.0368784925
5.1300000000	0.0144923888	0.0384401618
5.1450000000	0.0140236854	0.0385963287
5.1600000000	0.0124613410	0.0376593271
5.1750000000	0.0101178244	0.0351606563
5.1900000000	0.0079305422	0.0314126501
5.2050000000	0.0066806667	0.0267276424
5.2200000000	0.0035559779	0.0211056332
5.2350000000	0.0015249302	0.0143904555
5.2500000000	-0.0005061175	0.0073629442
5.2650000000	-0.0026933996	0.0001792659
5.2800000000	-0.0058180884	-0.0071605791
5.2950000000	-0.0065992606	-0.0141880902
5.3100000000	-0.0081616049	-0.0209032675
5.3250000000	-0.0097239493	-0.0268376101
5.3400000000	-0.0108175904	-0.0318349511
5.3550000000	-0.0105051215	-0.0354267900
5.3700000000	-0.0114425281	-0.0380816274
5.3850000000	-0.0106613559	-0.0391747958
5.4000000000	-0.0098801837	-0.0387062951
5.4150000000	-0.0083178394	-0.0374569598
5.4300000000	-0.0078491361	-0.0348021224
5.4450000000	-0.0055056195	-0.0305856159
5.4600000000	-0.0042557440	-0.0254321079
5.4750000000	-0.0026933996	-0.0191854314
5.4900000000	-0.0003498830	-0.0126264211
5.5050000000	0.0029310402	-0.0054427430
5.5200000000	0.0044933846	0.0017409351
5.5350000000	0.0068369012	0.0093931141
5.5500000000	0.0099615900	0.0157959578
5.5650000000	0.0116801688	0.0223549685
5.5800000000	0.0124613410	0.0279769778
5.5950000000	0.0140236854	0.0325058186
5.6100000000	0.0143361543	0.0357853240
5.6250000000	0.0138674510	0.0379716610
5.6400000000	0.0137112166	0.0387524956
5.6550000000	0.0137112166	0.0379716610
5.6700000000	0.0115239344	0.0357853240
5.6850000000	0.0098053555	0.0328181524
5.7000000000	0.0079305422	0.0284454785
5.7150000000	0.0051183223	0.0228234693
5.7300000000	0.0021498680	0.0165767924
5.7450000000	-0.0000374142	0.0098616149
5.7600000000	-0.0025371652	0.0028341035
5.7750000000	-0.0051931506	-0.0049742423
5.7900000000	-0.0075366672	-0.0121579204
5.8050000000	-0.0081616049	-0.0187169307
5.8200000000	-0.0095677149	-0.0248074402
5.8350000000	-0.0105051215	-0.0301171151
5.8500000000	-0.0101926526	-0.0341774548
5.8650000000	-0.0101926526	-0.0373007929
5.8800000000	-0.0106613559	-0.0388624620
5.8950000000	-0.0095677149	-0.0391747958
5.9100000000	-0.0092552460	-0.0382377943
5.9250000000	-0.0084740738	-0.0358952907
5.9400000000	-0.0072241983	-0.0319911180
5.9550000000	-0.0048806817	-0.0273061108
5.9700000000	-0.0030058685	-0.0212156013
5.9850000000	-0.0008185864	-0.0149689248
6.0000000000	0.0019936335	-0.0077852468
6.0150000000	0.0044933846	-0.0006015686
6.0300000000	0.0057432601	0.0065821096
6.0450000000	0.0082430111	0.0137657879
6.0600000000	0.0102740589	0.0201686316
6.0750000000	0.0115239344	0.0262591416
6.0900000000	0.0127738099	0.0311003163
6.1050000000	0.0148048577	0.0346921555
6.1200000000	0.0146486232	0.0376593271
6.1350000000	0.0144923888	0.0387524956
6.1500000000	0.0141799199	0.0385963287
6.1650000000	0.0127738099	0.0370346594
6.1800000000	0.0101178244	0.0342236548
6.1950000000	0.0083992456	0.0300071478
6.2100000000	0.0058994945	0.0248536393
6.2250000000	0.0024623369	0.0186069624
6.2400000000	0.0001188203	0.0123602856
6.2550000000	-0.0019122274	0.0048642735
6.2700000000	-0.0044119784	-0.0024755716
6.2850000000	-0.0059743228	-0.0096592497
6.3000000000	-0.0072241983	-0.0166867608
6.3150000000	-0.0080053705	-0.0229334373
6.3300000000	-0.0095677149	-0.0283992791
6.3450000000	-0.0101926526	-0.0329281195
6.3600000000	-0.0106613559	-0.0363637915
6.3750000000	-0.0108175904	-0.0383939613
6.3900000000	-0.0108175904	-0.0390186289
6.4050000000	-0.0098801837	-0.0385501282
6.4200000000	-0.0087865427	-0.0368322922
6.4350000000	-0.0072241983	-0.0333966202
6.4500000000	-0.0051931506	-0.0288677799
6.4650000000	-0.0030058685	-0.0234019380
6.4800000000	-0.0014435241	-0.0171552616
6.4950000000	0.0010562269	-0.0101277505
6.5100000000	0.0032435090	-0.0029440724
6.5250000000	0.0044933846	0.0042396058
6.5400000000	0.0068369012	0.0112671171
6.5550000000	0.0096491211	0.0181384616
6.5700000000	0.0118364033	0.0242289716
6.5850000000	0.0132425132	0.0295386470
6.6000000000	0.0149610921	0.0337551540
6.6150000000	0.0152735610	0.0367223256
6.6300000000	0.0146486232	0.0384401618
6.6450000000	0.0140236854	0.0385963287
6.6600000000	0.0123051066	0.0375031602
6.6750000000	0.0105865277	0.0348483225
6.6900000000	0.0080867767	0.0315688170
6.7050000000	0.0065244323	0.0265714755
6.7200000000	0.0037122124	0.0209494662
6.7350000000	0.0015249302	0.0143904555
6.7500000000	-0.0008185864	0.0073629442
6.7650000000	-0.0028496341	0.0000230990
6.7800000000	-0.0053493851	-0.0073167460
6.7950000000	-0.0070679639	-0.0143442571
6.8100000000	-0.0081616049	-0.0207471005
6.8250000000	-0.0095677149	-0.0266814431
6.8400000000	-0.0108175904	-0.0315226173
6.8550000000	-0.0109738248	-0.0355829569
6.8700000000	-0.0112862937	-0.0380816274
6.8850000000	-0.0106613559	-0.0390186289
6.9000000000	-0.0097239493	-0.0387062951
6.9150000000	-0.0086303082	-0.0374569598
6.9300000000	-0.0075366672	-0.0344897886
6.9450000000	-0.0058180884	-0.0302732821
6.9600000000	-0.0042557440	-0.0252759410
6.9750000000	-0.0025371652	-0.0193415983
6.9900000000	-0.0008185864	-0.0126264211
7.0050000000	0.0021498680	-0.0054427430
7.0200000000	0.0044933846	0.0015847682
7.0350000000	0.0068369012	0.0087684464
7.0500000000	0.0093366522	0.0159521247
7.0650000000	0.0116801688	0.0225111355
7.0800000000	0.0129300444	0.0279769778
7.0950000000	0.0140236854	0.0323496517
7.1100000000	0.0148048577	0.0359414909
7.1250000000	0.0144923888	0.0378154941
7.1400000000	0.0133987477	0.0387524956
7.1550000000	0.0130862788	0.0381278279
7.1700000000	0.0116801688	0.0360976579
7.1850000000	0.0098053555	0.0329743194
7.2000000000	0.0077743078	0.0286016455
7.2150000000	0.0055870256	0.0229796362
7.2300000000	0.0026185713	0.0168891263
7.2450000000	-0.0001936486	0.0098616149
7.2600000000	-0.0028496341	0.0025217697
7.2750000000	-0.0050369162	-0.0046619085
7.2900000000	-0.0075366672	-0.0121579204
7.3050000000	-0.0081616049	-0.0187169307
7.3200000000	-0.0092552460	-0.0248074402
7.3350000000	-0.0101926526	-0.0299609482
7.3500000000	-0.0101926526	-0.0340212879
7.3650000000	-0.0100364182	-0.0371446260
7.3800000000	-0.0103488870	-0.0387062951
7.3950000000	-0.0097239493	-0.0390186289
7.4100000000	-0.0089427771	-0.0380816274
7.4250000000	-0.0078491361	-0.0357391238
7.4400000000	-0.0070679639	-0.0319911180
7.4550000000	-0.0053493851	-0.0273061108
