3655819961.8295039000 	 Frequency 	 2.000000 	 Amplitude  	 0.040000
0.0000000000	-0.0003498830	-0.0004454017
0.0150000000	0.0019936335	0.0023656028
0.0300000000	0.0049620879	0.0079876118
0.0450000000	0.0068369012	0.0143904555
0.0600000000	0.0098053555	0.0204809655
0.0750000000	0.0119926377	0.0262591416
0.0900000000	0.0127738099	0.0311003163
0.1050000000	0.0133987477	0.0351606563
0.1200000000	0.0141799199	0.0375031602
0.1350000000	0.0133987477	0.0387524956
0.1500000000	0.0124613410	0.0384401618
0.1650000000	0.0115239344	0.0368784925
0.1800000000	0.0102740589	0.0340674878
0.1950000000	0.0079305422	0.0298509809
0.2100000000	0.0054307912	0.0246974724
0.2250000000	0.0033997435	0.0186069624
0.2400000000	0.0004312891	0.0123602856
0.2550000000	-0.0020684619	0.0048642735
0.2700000000	-0.0039432751	-0.0023194047
0.2850000000	-0.0058180884	-0.0096592497
0.3000000000	-0.0084740738	-0.0163744270
0.3150000000	-0.0094114804	-0.0229334373
0.3300000000	-0.0105051215	-0.0285554461
0.3450000000	-0.0111300592	-0.0329281195
0.3600000000	-0.0109738248	-0.0363637915
0.3750000000	-0.0103488870	-0.0385501282
0.3900000000	-0.0105051215	-0.0393309627
0.4050000000	-0.0090990115	-0.0385501282
0.4200000000	-0.0080053705	-0.0366761253
0.4350000000	-0.0070679639	-0.0332404533
0.4500000000	-0.0061305572	-0.0288677799
0.4650000000	-0.0036308062	-0.0234019380
0.4800000000	-0.0020684619	-0.0169990947
0.4950000000	0.0004312891	-0.0104400843
0.5100000000	0.0030872746	-0.0029440724
0.5250000000	0.0058994945	0.0042396058
0.5400000000	0.0079305422	0.0114232840
0.5550000000	0.0099615900	0.0181384616
0.5700000000	0.0116801688	0.0245413055
0.5850000000	0.0124613410	0.0293824801
0.6000000000	0.0130862788	0.0337551540
0.6150000000	0.0148048577	0.0368784925
0.6300000000	0.0144923888	0.0381278279
0.6450000000	0.0143361543	0.0385963287
0.6600000000	0.0129300444	0.0375031602
0.6750000000	0.0116801688	0.0351606563
0.6900000000	0.0091804178	0.0317249840
0.7050000000	0.0063681978	0.0265714755
0.7200000000	0.0038684468	0.0209494662
0.7350000000	0.0007437580	0.0143904555
0.7500000000	-0.0019122274	0.0073629442
0.7650000000	-0.0033183374	0.0000230990
0.7800000000	-0.0056618539	-0.0071605791
0.7950000000	-0.0075366672	-0.0145004241
0.8100000000	-0.0083178394	-0.0209032675
0.8250000000	-0.0092552460	-0.0268376101
0.8400000000	-0.0105051215	-0.0316787842
0.8550000000	-0.0106613559	-0.0355829569
0.8700000000	-0.0105051215	-0.0380816274
0.8850000000	-0.0105051215	-0.0391747958
0.9000000000	-0.0103488870	-0.0388624620
0.9150000000	-0.0090990115	-0.0374569598
0.9300000000	-0.0075366672	-0.0346459555
0.9450000000	-0.0065992606	-0.0305856159
0.9600000000	-0.0042557440	-0.0254321079
0.9750000000	-0.0017559930	-0.0193415983
0.9900000000	0.0001188203	-0.0126264211
1.0050000000	0.0026185713	-0.0054427430
1.0200000000	0.0048058534	0.0020532689
1.0350000000	0.0065244323	0.0090807803
1.0500000000	0.0083992456	0.0159521247
1.0650000000	0.0112114655	0.0225111355
1.0800000000	0.0124613410	0.0278208108
1.0950000000	0.0138674510	0.0325058186
1.1100000000	0.0149610921	0.0360976579
1.1250000000	0.0149610921	0.0382839948
1.1400000000	0.0140236854	0.0387524956
1.1550000000	0.0132425132	0.0381278279
1.1700000000	0.0115239344	0.0360976579
1.1850000000	0.0090241833	0.0329743194
1.2000000000	0.0066806667	0.0284454785
1.2150000000	0.0048058534	0.0228234693
1.2300000000	0.0021498680	0.0164206255
1.2450000000	-0.0005061175	0.0097054479
1.2600000000	-0.0022246963	0.0025217697
1.2750000000	-0.0040995096	-0.0048180754
1.2900000000	-0.0067554950	-0.0121579204
1.3050000000	-0.0078491361	-0.0188730976
1.3200000000	-0.0084740738	-0.0248074402
1.3350000000	-0.0100364182	-0.0301171151
1.3500000000	-0.0112862937	-0.0344897886
1.3650000000	-0.0109738248	-0.0377692936
1.3800000000	-0.0108175904	-0.0390186289
1.3950000000	-0.0100364182	-0.0391747958
1.4100000000	-0.0089427771	-0.0380816274
1.4250000000	-0.0078491361	-0.0357391238
1.4400000000	-0.0067554950	-0.0319911180
1.4550000000	-0.0045682129	-0.0273061108
1.4700000000	-0.0025371652	-0.0212156013
1.4850000000	-0.0012872897	-0.0149689248
1.5000000000	0.0007437580	-0.0076290799
1.5150000000	0.0038684468	-0.0004454017
1.5300000000	0.0062119634	0.0067382765
1.5450000000	0.0085554800	0.0136096209
1.5600000000	0.0108989966	0.0201686316
1.5750000000	0.0127738099	0.0262591416
1.5900000000	0.0135549821	0.0311003163
1.6050000000	0.0143361543	0.0348483225
1.6200000000	0.0146486232	0.0375031602
1.6350000000	0.0138674510	0.0387524956
1.6500000000	0.0127738099	0.0387524956
1.6650000000	0.0124613410	0.0370346594
1.6800000000	0.0104302933	0.0342236548
1.6950000000	0.0079305422	0.0300071478
1.7100000000	0.0060557290	0.0246974724
1.7250000000	0.0038684468	0.0189192962
1.7400000000	0.0005875236	0.0120479517
1.7550000000	-0.0017559930	0.0048642735
1.7700000000	-0.0040995096	-0.0023194047
1.7850000000	-0.0061305572	-0.0095030828
1.8000000000	-0.0078491361	-0.0165305939
1.8150000000	-0.0092552460	-0.0229334373
1.8300000000	-0.0101926526	-0.0287116130
1.8450000000	-0.0105051215	-0.0329281195
1.8600000000	-0.0103488870	-0.0365199584
1.8750000000	-0.0103488870	-0.0385501282
1.8900000000	-0.0098801837	-0.0390186289
1.9050000000	-0.0092552460	-0.0387062951
1.9200000000	-0.0081616049	-0.0365199584
1.9350000000	-0.0078491361	-0.0333966202
1.9500000000	-0.0058180884	-0.0288677799
1.9650000000	-0.0034745718	-0.0234019380
1.9800000000	-0.0015997586	-0.0169990947
1.9950000000	0.0008999925	-0.0102839174
2.0100000000	0.0035559779	-0.0031002393
2.0250000000	0.0058994945	0.0043957727
2.0400000000	0.0073056045	0.0112671171
2.0550000000	0.0102740589	0.0182946286
2.0700000000	0.0115239344	0.0245413055
2.0850000000	0.0124613410	0.0295386470
2.1000000000	0.0137112166	0.0337551540
2.1150000000	0.0149610921	0.0367223256
2.1300000000	0.0143361543	0.0384401618
2.1450000000	0.0140236854	0.0387524956
2.1600000000	0.0132425132	0.0376593271
2.1750000000	0.0115239344	0.0351606563
2.1900000000	0.0083992456	0.0312564832
2.2050000000	0.0063681978	0.0270399762
2.2200000000	0.0041809157	0.0211056332
2.2350000000	0.0012124613	0.0143904555
2.2500000000	-0.0020684619	0.0072067772
2.2650000000	-0.0033183374	0.0001792659
2.2800000000	-0.0055056195	-0.0074729129
2.2950000000	-0.0069117294	-0.0143442571
2.3100000000	-0.0083178394	-0.0207471005
2.3250000000	-0.0092552460	-0.0266814431
2.3400000000	-0.0105051215	-0.0316787842
2.3550000000	-0.0100364182	-0.0354267900
2.3700000000	-0.0105051215	-0.0379254605
2.3850000000	-0.0111300592	-0.0393309627
2.4000000000	-0.0105051215	-0.0388624620
2.4150000000	-0.0086303082	-0.0373007929
2.4300000000	-0.0080053705	-0.0346459555
2.4450000000	-0.0064430261	-0.0304294490
2.4600000000	-0.0037870407	-0.0254321079
2.4750000000	-0.0012872897	-0.0193415983
2.4900000000	-0.0000374142	-0.0126264211
2.5050000000	0.0024623369	-0.0055989100
2.5200000000	0.0046496190	0.0018971020
2.5350000000	0.0062119634	0.0093931141
2.5500000000	0.0085554800	0.0159521247
2.5650000000	0.0113676999	0.0223549685
2.5800000000	0.0126175755	0.0279769778
2.5950000000	0.0138674510	0.0325058186
2.6100000000	0.0151173265	0.0357853240
2.6250000000	0.0154297954	0.0381278279
2.6400000000	0.0140236854	0.0389086626
2.6550000000	0.0133987477	0.0381278279
2.6700000000	0.0112114655	0.0362538248
2.6850000000	0.0085554800	0.0328181524
2.7000000000	0.0065244323	0.0284454785
2.7150000000	0.0051183223	0.0229796362
2.7300000000	0.0021498680	0.0170452932
2.7450000000	-0.0000374142	0.0097054479
2.7600000000	-0.0022246963	0.0026779366
2.7750000000	-0.0042557440	-0.0049742423
2.7900000000	-0.0061305572	-0.0121579204
2.8050000000	-0.0076929016	-0.0188730976
2.8200000000	-0.0090990115	-0.0248074402
2.8350000000	-0.0106613559	-0.0302732821
2.8500000000	-0.0109738248	-0.0341774548
2.8650000000	-0.0106613559	-0.0373007929
2.8800000000	-0.0111300592	-0.0388624620
2.8950000000	-0.0105051215	-0.0391747958
2.9100000000	-0.0089427771	-0.0380816274
2.9250000000	-0.0076929016	-0.0355829569
2.9400000000	-0.0067554950	-0.0318349511
2.9550000000	-0.0047244473	-0.0273061108
2.9700000000	-0.0026933996	-0.0213717682
2.9850000000	-0.0012872897	-0.0148127579
3.0000000000	0.0012124613	-0.0076290799
3.0150000000	0.0040246812	-0.0006015686
3.0300000000	0.0058994945	0.0067382765
3.0450000000	0.0083992456	0.0137657879
3.0600000000	0.0113676999	0.0206371324
3.0750000000	0.0127738099	0.0262591416
3.0900000000	0.0132425132	0.0311003163
3.1050000000	0.0144923888	0.0348483225
3.1200000000	0.0143361543	0.0375031602
3.1350000000	0.0135549821	0.0385963287
3.1500000000	0.0129300444	0.0385963287
3.1650000000	0.0124613410	0.0370346594
3.1800000000	0.0102740589	0.0340674878
3.1950000000	0.0085554800	0.0298509809
3.2100000000	0.0058994945	0.0248536393
3.2250000000	0.0037122124	0.0187631293
3.2400000000	0.0002750547	0.0122041186
3.2550000000	-0.0014435241	0.0048642735
3.2700000000	-0.0039432751	-0.0024755716
3.2850000000	-0.0067554950	-0.0096592497
3.3000000000	-0.0083178394	-0.0166867608
3.3150000000	-0.0087865427	-0.0227772704
3.3300000000	-0.0100364182	-0.0283992791
3.3450000000	-0.0106613559	-0.0330842864
3.3600000000	-0.0106613559	-0.0365199584
3.3750000000	-0.0098801837	-0.0385501282
3.3900000000	-0.0101926526	-0.0393309627
3.4050000000	-0.0092552460	-0.0387062951
3.4200000000	-0.0084740738	-0.0368322922
3.4350000000	-0.0076929016	-0.0330842864
3.4500000000	-0.0062867917	-0.0288677799
3.4650000000	-0.0034745718	-0.0237142719
3.4800000000	-0.0015997586	-0.0171552616
3.4950000000	0.0010562269	-0.0102839174
3.5100000000	0.0037122124	-0.0031002393
3.5250000000	0.0058994945	0.0043957727
3.5400000000	0.0074618389	0.0114232840
3.5550000000	0.0101178244	0.0184507955
3.5700000000	0.0115239344	0.0243851385
3.5850000000	0.0126175755	0.0295386470
3.6000000000	0.0135549821	0.0337551540
3.6150000000	0.0148048577	0.0364099917
3.6300000000	0.0144923888	0.0381278279
3.6450000000	0.0138674510	0.0387524956
3.6600000000	0.0135549821	0.0376593271
3.6750000000	0.0115239344	0.0353168232
3.6900000000	0.0087117144	0.0314126501
3.7050000000	0.0068369012	0.0267276424
3.7200000000	0.0040246812	0.0209494662
3.7350000000	0.0008999925	0.0145466225
3.7500000000	-0.0015997586	0.0073629442
3.7650000000	-0.0031621029	0.0000230990
3.7800000000	-0.0055056195	-0.0073167460
3.7950000000	-0.0072241983	-0.0143442571
3.8100000000	-0.0081616049	-0.0210594344
3.8250000000	-0.0090990115	-0.0266814431
3.8400000000	-0.0100364182	-0.0316787842
3.8550000000	-0.0105051215	-0.0354267900
3.8700000000	-0.0105051215	-0.0376131267
3.8850000000	-0.0106613559	-0.0391747958
3.9000000000	-0.0105051215	-0.0391747958
3.9150000000	-0.0089427771	-0.0374569598
3.9300000000	-0.0078491361	-0.0344897886
3.9450000000	-0.0059743228	-0.0304294490
3.9600000000	-0.0036308062	-0.0254321079
3.9750000000	-0.0015997586	-0.0193415983
3.9900000000	-0.0003498830	-0.0124702542
4.0050000000	0.0026185713	-0.0054427430
4.0200000000	0.0043371501	0.0017409351
4.0350000000	0.0060557290	0.0090807803
4.0500000000	0.0085554800	0.0157959578
4.0650000000	0.0115239344	0.0221988016
4.0800000000	0.0126175755	0.0278208108
4.0950000000	0.0143361543	0.0323496517
4.1100000000	0.0152735610	0.0360976579
4.1250000000	0.0149610921	0.0378154941
4.1400000000	0.0138674510	0.0389086626
4.1550000000	0.0130862788	0.0381278279
4.1700000000	0.0115239344	0.0362538248
4.1850000000	0.0087117144	0.0328181524
4.2000000000	0.0068369012	0.0284454785
4.2150000000	0.0046496190	0.0229796362
4.2300000000	0.0018373991	0.0165767924
4.2450000000	-0.0001936486	0.0098616149
4.2600000000	-0.0019122274	0.0023656028
4.2750000000	-0.0040995096	-0.0048180754
4.2900000000	-0.0059743228	-0.0118455865
4.3050000000	-0.0073804327	-0.0188730976
4.3200000000	-0.0089427771	-0.0248074402
4.3350000000	-0.0103488870	-0.0301171151
4.3500000000	-0.0108175904	-0.0343336217
4.3650000000	-0.0109738248	-0.0371446260
4.3800000000	-0.0112862937	-0.0388624620
4.3950000000	-0.0101926526	-0.0391747958
4.4100000000	-0.0089427771	-0.0380816274
4.4250000000	-0.0078491361	-0.0357391238
4.4400000000	-0.0067554950	-0.0319911180
4.4550000000	-0.0045682129	-0.0273061108
4.4700000000	-0.0030058685	-0.0215279351
4.4850000000	-0.0014435241	-0.0149689248
4.5000000000	0.0008999925	-0.0079414137
4.5150000000	0.0038684468	-0.0007577356
4.5300000000	0.0060557290	0.0067382765
4.5450000000	0.0087117144	0.0137657879
4.5600000000	0.0110552311	0.0201686316
4.5750000000	0.0127738099	0.0261029747
4.5900000000	0.0133987477	0.0312564832
4.6050000000	0.0144923888	0.0348483225
4.6200000000	0.0144923888	0.0376593271
4.6350000000	0.0133987477	0.0387524956
4.6500000000	0.0129300444	0.0384401618
4.6650000000	0.0123051066	0.0368784925
4.6800000000	0.0104302933	0.0340674878
4.6950000000	0.0085554800	0.0300071478
4.7100000000	0.0066806667	0.0248536393
4.7250000000	0.0035559779	0.0187631293
4.7400000000	0.0004312891	0.0122041186
4.7550000000	-0.0014435241	0.0048642735
4.7700000000	-0.0040995096	-0.0023194047
4.7850000000	-0.0067554950	-0.0096592497
4.8000000000	-0.0078491361	-0.0165305939
4.8150000000	-0.0089427771	-0.0227772704
4.8300000000	-0.0105051215	-0.0283992791
4.8450000000	-0.0103488870	-0.0329281195
4.8600000000	-0.0100364182	-0.0363637915
4.8750000000	-0.0101926526	-0.0385501282
4.8900000000	-0.0103488870	-0.0394871296
4.9050000000	-0.0089427771	-0.0387062951
4.9200000000	-0.0084740738	-0.0365199584
4.9350000000	-0.0075366672	-0.0333966202
4.9500000000	-0.0055056195	-0.0288677799
4.9650000000	-0.0034745718	-0.0232457711
4.9800000000	-0.0015997586	-0.0169990947
4.9950000000	0.0010562269	-0.0102839174
5.0100000000	0.0037122124	-0.0027879055
5.0250000000	0.0054307912	0.0040834389
5.0400000000	0.0073056045	0.0115794510
5.0550000000	0.0099615900	0.0181384616
5.0700000000	0.0113676999	0.0242289716
5.0850000000	0.0123051066	0.0293824801
5.1000000000	0.0138674510	0.0337551540
5.1150000000	0.0149610921	0.0367223256
5.1300000000	0.0144923888	0.0384401618
5.1450000000	0.0140236854	0.0387524956
5.1600000000	0.0135549821	0.0376593271
5.1750000000	0.0113676999	0.0351606563
5.1900000000	0.0090241833	0.0315688170
5.2050000000	0.0069931356	0.0265714755
5.2200000000	0.0037122124	0.0211056332
5.2350000000	0.0002750547	0.0145466225
5.2500000000	-0.0017559930	0.0073629442
5.2650000000	-0.0034745718	0.0000230990
5.2800000000	-0.0056618539	-0.0073167460
5.2950000000	-0.0073804327	-0.0145004241
5.3100000000	-0.0080053705	-0.0209032675
5.3250000000	-0.0090990115	-0.0263691093
5.3400000000	-0.0101926526	-0.0316787842
5.3550000000	-0.0103488870	-0.0352706231
5.3700000000	-0.0111300592	-0.0380816274
5.3850000000	-0.0109738248	-0.0394871296
5.4000000000	-0.0101926526	-0.0390186289
5.4150000000	-0.0086303082	-0.0376131267
5.4300000000	-0.0078491361	-0.0344897886
5.4450000000	-0.0059743228	-0.0305856159
5.4600000000	-0.0039432751	-0.0252759410
5.4750000000	-0.0020684619	-0.0191854314
5.4900000000	-0.0000374142	-0.0126264211
5.5050000000	0.0027748057	-0.0054427430
5.5200000000	0.0046496190	0.0018971020
5.5350000000	0.0063681978	0.0090807803
5.5500000000	0.0087117144	0.0159521247
5.5650000000	0.0112114655	0.0223549685
5.5800000000	0.0126175755	0.0278208108
5.5950000000	0.0144923888	0.0323496517
5.6100000000	0.0154297954	0.0357853240
5.6250000000	0.0151173265	0.0378154941
5.6400000000	0.0138674510	0.0385963287
5.6550000000	0.0135549821	0.0381278279
5.6700000000	0.0113676999	0.0360976579
5.6850000000	0.0082430111	0.0328181524
5.7000000000	0.0068369012	0.0282893116
5.7150000000	0.0044933846	0.0228234693
5.7300000000	0.0021498680	0.0167329593
5.7450000000	-0.0001936486	0.0098616149
5.7600000000	-0.0020684619	0.0023656028
5.7750000000	-0.0042557440	-0.0048180754
5.7900000000	-0.0064430261	-0.0118455865
5.8050000000	-0.0075366672	-0.0185607638
5.8200000000	-0.0090990115	-0.0246512733
5.8350000000	-0.0105051215	-0.0299609482
5.8500000000	-0.0108175904	-0.0341774548
5.8650000000	-0.0109738248	-0.0371446260
5.8800000000	-0.0114425281	-0.0390186289
5.8950000000	-0.0101926526	-0.0393309627
5.9100000000	-0.0086303082	-0.0380816274
5.9250000000	-0.0075366672	-0.0357391238
5.9400000000	-0.0062867917	-0.0321472850
5.9550000000	-0.0042557440	-0.0271499439
5.9700000000	-0.0028496341	-0.0213717682
5.9850000000	-0.0014435241	-0.0149689248
6.0000000000	0.0010562269	-0.0079414137
6.0150000000	0.0037122124	-0.0007577356
6.0300000000	0.0058994945	0.0067382765
6.0450000000	0.0085554800	0.0136096209
6.0600000000	0.0113676999	0.0203247985
6.0750000000	0.0127738099	0.0262591416
6.0900000000	0.0135549821	0.0311003163
6.1050000000	0.0146486232	0.0350044894
6.1200000000	0.0143361543	0.0373469933
6.1350000000	0.0135549821	0.0385963287
6.1500000000	0.0130862788	0.0384401618
6.1650000000	0.0121488721	0.0367223256
6.1800000000	0.0104302933	0.0340674878
6.1950000000	0.0083992456	0.0298509809
6.2100000000	0.0062119634	0.0246974724
6.2250000000	0.0030872746	0.0187631293
6.2400000000	0.0004312891	0.0120479517
6.2550000000	-0.0015997586	0.0047081065
6.2700000000	-0.0042557440	-0.0021632378
6.2850000000	-0.0065992606	-0.0096592497
6.3000000000	-0.0078491361	-0.0165305939
6.3150000000	-0.0089427771	-0.0227772704
6.3300000000	-0.0103488870	-0.0287116130
6.3450000000	-0.0106613559	-0.0330842864
6.3600000000	-0.0103488870	-0.0362076246
6.3750000000	-0.0101926526	-0.0385501282
6.3900000000	-0.0098801837	-0.0396432965
6.4050000000	-0.0092552460	-0.0385501282
6.4200000000	-0.0083178394	-0.0365199584
6.4350000000	-0.0073804327	-0.0333966202
6.4500000000	-0.0059743228	-0.0291801137
6.4650000000	-0.0034745718	-0.0235581049
6.4800000000	-0.0019122274	-0.0171552616
6.4950000000	0.0008999925	-0.0105962512
6.5100000000	0.0037122124	-0.0029440724
6.5250000000	0.0058994945	0.0043957727
6.5400000000	0.0076180734	0.0111109502
6.5550000000	0.0101178244	0.0182946286
6.5700000000	0.0113676999	0.0245413055
6.5850000000	0.0121488721	0.0295386470
6.6000000000	0.0135549821	0.0337551540
6.6150000000	0.0149610921	0.0367223256
6.6300000000	0.0146486232	0.0384401618
6.6450000000	0.0144923888	0.0385963287
6.6600000000	0.0138674510	0.0376593271
6.6750000000	0.0112114655	0.0351606563
6.6900000000	0.0087117144	0.0314126501
6.7050000000	0.0065244323	0.0267276424
6.7200000000	0.0032435090	0.0207932993
6.7350000000	0.0002750547	0.0142342886
6.7500000000	-0.0015997586	0.0073629442
6.7650000000	-0.0034745718	-0.0001330679
6.7800000000	-0.0055056195	-0.0071605791
6.7950000000	-0.0069117294	-0.0143442571
6.8100000000	-0.0073804327	-0.0209032675
6.8250000000	-0.0089427771	-0.0268376101
6.8400000000	-0.0100364182	-0.0316787842
6.8550000000	-0.0100364182	-0.0352706231
6.8700000000	-0.0103488870	-0.0377692936
6.8850000000	-0.0108175904	-0.0391747958
6.9000000000	-0.0103488870	-0.0390186289
6.9150000000	-0.0089427771	-0.0376131267
6.9300000000	-0.0078491361	-0.0346459555
6.9450000000	-0.0056618539	-0.0304294490
6.9600000000	-0.0036308062	-0.0255882748
6.9750000000	-0.0019122274	-0.0193415983
6.9900000000	0.0002750547	-0.0126264211
7.0050000000	0.0027748057	-0.0054427430
7.0200000000	0.0046496190	0.0018971020
7.0350000000	0.0062119634	0.0090807803
7.0500000000	0.0088679489	0.0159521247
7.0650000000	0.0112114655	0.0225111355
7.0800000000	0.0123051066	0.0279769778
7.0950000000	0.0140236854	0.0325058186
7.1100000000	0.0152735610	0.0359414909
7.1250000000	0.0146486232	0.0378154941
7.1400000000	0.0143361543	0.0387524956
7.1550000000	0.0129300444	0.0379716610
7.1700000000	0.0112114655	0.0364099917
7.1850000000	0.0085554800	0.0326619855
7.2000000000	0.0066806667	0.0286016455
7.2150000000	0.0044933846	0.0228234693
7.2300000000	0.0019936335	0.0164206255
7.2450000000	0.0002750547	0.0097054479
7.2600000000	-0.0017559930	0.0025217697
7.2750000000	-0.0040995096	-0.0048180754
7.2900000000	-0.0062867917	-0.0120017534
7.3050000000	-0.0076929016	-0.0185607638
7.3200000000	-0.0089427771	-0.0246512733
7.3350000000	-0.0105051215	-0.0302732821
7.3500000000	-0.0109738248	-0.0341774548
7.3650000000	-0.0111300592	-0.0371446260
7.3800000000	-0.0112862937	-0.0390186289
7.3950000000	-0.0098801837	-0.0391747958
7.4100000000	-0.0086303082	-0.0380816274
7.4250000000	-0.0078491361	-0.0357391238
7.4400000000	-0.0064430261	-0.0318349511
7.4550000000	-0.0045682129	-0.0273061108
