CORRW ASCII
  CorrWare for Windows: Version 3.5f
  Open Circuit	[50 Hour][default]	100%O2_OCVRampUP.cor
  Date: 11-05-2019    Time: 00:18:44
   
   
  Open Circuit Potential (V): 0.00091574
  Begin Information:          Cell Information
    Surface Area:             1
    Density:                  0
    Weight:                   0
    Polarity:                 0
    PolarityI:                0
    Corrosion Unit Type:      0
    Reference Type:           0
    Reference Potential:      0
    User-Defined Potential:   0
    Stern-Geary:              26
  End Information:            Cell Information
  Begin Pstat:                1287
    Pstat Title:              Instrument #1
    Booster Type:             0
    Booster Name:             None
    Current Range:            0
    Current Limit:            0
    Current LimitType:        0
    Sweep Type:               0
    Use Error Beep:           1
    Auxilary Type:            0
    iR Comp. Type:            0
    iR Ohms:                  0
    iR Time:                  27
    iR Ratio:                 255
    LP Filter Type:           2
    Drift Correction:         1
    Null Correction:          0
    Pstat Bandwidth Type:     2
    Gstat Bandwidth Type:     2
    External Input:           0
    SafetyMinV:               0
    SafetyMaxV:               10
    SafetyMinI:               0
    SafetyMaxI:               4
    SafetyMinQ:               0
    SafetyMaxQ:               1000
    SafetyMinT:               0
    SafetyMaxT:               50
    SafetyChT:                0
    SafetyMinVUse:            0
    SafetyMaxVUse:            0
    SafetyMinIUse:            0
    SafetyMaxIUse:            0
    SafetyMinQUse:            0
    SafetyMaxQUse:            0
    SafetyMinTUse:            0
    SafetyMaxTUse:            0
  End Pstat:                  1287
  Begin Experiment:           Open Circuit	[50 Hour][default]	100%O2_OCVRampUP.cor
    Data File:                Z:\191101_Amezawa\fr_XAS\TPB2\100% O2\Electrochem\100%O2_OCVRampUP.cor
    Data Append:              0
    Comment Lines:            0
    Total Time:               50
    Time Units:               2
    Time Marker:              -1
    Measure Rate Type:        1
    Measure Rate #1:          2000
    Measure Rate #2:          5
    Measure Rate #3:          0.1
    Measure Rate #4:          2
    Use Threshold:            0
    Threshold E_Min:          -15
    Threshold E_Max:          15
    Threshold T_Min:          0
    Threshold T_Max:          100
    Threshold Delta:          5
    Threshold Time:           60
    Axes Type:                0
    Use Custom Pstat:         0
  End Experiment:             Open Circuit	[50 Hour][default]	100%O2_OCVRampUP.cor
  Data Points:                2338
  E(Volts)	I(A/cm2)	T(Seconds)
End Comments
-2.169766E-01	0.000000E+00	0.000000E+00
-2.311781E-01	0.000000E+00	8.800000E-01
-2.589671E-01	0.000000E+00	1.320000E+00
-2.544380E-01	0.000000E+00	1.760000E+00
-2.704819E-01	0.000000E+00	2.210000E+00
-2.841461E-01	0.000000E+00	2.640000E+00
-2.833784E-01	0.000000E+00	3.090000E+00
-2.767766E-01	0.000000E+00	3.530000E+00
-2.719404E-01	0.000000E+00	3.980000E+00
-2.667972E-01	0.000000E+00	4.420000E+00
-2.727848E-01	0.000000E+00	4.870000E+00
-2.886752E-01	0.000000E+00	5.310000E+00
-2.856814E-01	0.000000E+00	5.750000E+00
-2.814593E-01	0.000000E+00	6.200000E+00
-2.546682E-01	0.000000E+00	6.630000E+00
-2.261884E-01	0.000000E+00	7.080000E+00
-2.205078E-01	0.000000E+00	8.320000E+00
-2.701748E-01	0.000000E+00	9.350000E+00
-2.615003E-01	0.000000E+00	9.790000E+00
-2.390849E-01	0.000000E+00	1.068000E+01
-2.797705E-01	0.000000E+00	1.113000E+01
-2.752413E-01	0.000000E+00	1.157000E+01
-2.664133E-01	0.000000E+00	1.202000E+01
-2.667204E-01	0.000000E+00	1.246000E+01
-2.706354E-01	0.000000E+00	1.290000E+01
-2.829178E-01	0.000000E+00	1.334000E+01
-2.802310E-01	0.000000E+00	1.378000E+01
-2.691001E-01	0.000000E+00	1.423000E+01
-2.668739E-01	0.000000E+00	1.466000E+01
-2.677183E-01	0.000000E+00	1.511000E+01
-2.766231E-01	0.000000E+00	1.555000E+01
-2.758554E-01	0.000000E+00	1.600000E+01
-2.741666E-01	0.000000E+00	1.644000E+01
-2.677951E-01	0.000000E+00	1.689000E+01
-2.320993E-01	0.000000E+00	1.733000E+01
-2.043871E-01	0.000000E+00	1.777000E+01
-2.248066E-01	0.000000E+00	1.822000E+01
-1.997044E-01	0.000000E+00	1.865000E+01
-1.966338E-01	0.000000E+00	1.910000E+01
-2.287217E-01	0.000000E+00	1.954000E+01
-2.103748E-01	0.000000E+00	1.999000E+01
-2.495250E-01	0.000000E+00	2.088000E+01
-1.874988E-01	0.000000E+00	2.132000E+01
-2.085325E-01	0.000000E+00	2.175000E+01
-2.596580E-01	0.000000E+00	2.220000E+01
-2.697910E-01	0.000000E+00	2.264000E+01
-2.699445E-01	0.000000E+00	2.309000E+01
-2.544380E-01	0.000000E+00	2.353000E+01
-2.569712E-01	0.000000E+00	2.398000E+01
-2.622680E-01	0.000000E+00	2.441000E+01
-2.643407E-01	0.000000E+00	2.486000E+01
-2.596580E-01	0.000000E+00	2.530000E+01
-2.535935E-01	0.000000E+00	2.574000E+01
-2.532097E-01	0.000000E+00	2.619000E+01
-2.453029E-01	0.000000E+00	2.663000E+01
-1.895714E-01	0.000000E+00	2.710000E+01
-1.901856E-01	0.000000E+00	2.754000E+01
-2.147504E-01	0.000000E+00	2.799000E+01
-1.838141E-01	0.000000E+00	2.843000E+01
-2.074577E-01	0.000000E+00	2.888000E+01
-2.178210E-01	0.000000E+00	2.932000E+01
-2.141363E-01	0.000000E+00	2.976000E+01
-2.413879E-01	0.000000E+00	3.064000E+01
-2.097607E-01	0.000000E+00	3.109000E+01
-2.411576E-01	0.000000E+00	3.153000E+01
-2.509835E-01	0.000000E+00	3.198000E+01
-2.449191E-01	0.000000E+00	3.243000E+01
-2.456100E-01	0.000000E+00	3.288000E+01
-2.467614E-01	0.000000E+00	3.332000E+01
-2.526724E-01	0.000000E+00	3.375000E+01
-2.483735E-01	0.000000E+00	3.420000E+01
-2.333276E-01	0.000000E+00	3.464000E+01
-2.330205E-01	0.000000E+00	3.509000E+01
-2.418485E-01	0.000000E+00	3.553000E+01
-2.464544E-01	0.000000E+00	3.598000E+01
-2.439979E-01	0.000000E+00	3.641000E+01
-2.010862E-01	0.000000E+00	3.686000E+01
-2.264187E-01	0.000000E+00	3.730000E+01
-1.609381E-01	0.000000E+00	3.773000E+01
-1.633178E-01	0.000000E+00	3.818000E+01
-2.201240E-01	0.000000E+00	3.862000E+01
-1.645460E-01	0.000000E+00	3.907000E+01
-2.124475E-01	0.000000E+00	3.951000E+01
-2.185887E-01	0.000000E+00	3.996000E+01
-2.337114E-01	0.000000E+00	4.083000E+01
-2.324831E-01	0.000000E+00	4.128000E+01
-2.211987E-01	0.000000E+00	4.172000E+01
-2.156716E-01	0.000000E+00	4.217000E+01
-2.165928E-01	0.000000E+00	4.260000E+01
-2.130616E-01	0.000000E+00	4.305000E+01
-2.224269E-01	0.000000E+00	4.349000E+01
-2.269561E-01	0.000000E+00	4.394000E+01
-2.182816E-01	0.000000E+00	4.438000E+01
-2.082254E-01	0.000000E+00	4.481000E+01
-2.116030E-01	0.000000E+00	4.526000E+01
-2.160554E-01	0.000000E+00	4.570000E+01
-2.244228E-01	0.000000E+00	4.615000E+01
-2.123707E-01	0.000000E+00	4.659000E+01
-2.037730E-01	0.000000E+00	4.704000E+01
-1.710711E-01	0.000000E+00	4.748000E+01
-1.524939E-01	0.000000E+00	4.793000E+01
-1.631642E-01	0.000000E+00	4.837000E+01
-1.795152E-01	0.000000E+00	4.880000E+01
-1.638551E-01	0.000000E+00	4.925000E+01
-1.736811E-01	0.000000E+00	4.969000E+01
-1.967106E-01	0.000000E+00	5.057000E+01
-2.106051E-01	0.000000E+00	5.102000E+01
-2.107586E-01	0.000000E+00	5.146000E+01
-2.116030E-01	0.000000E+00	5.191000E+01
-1.975550E-01	0.000000E+00	5.234000E+01
-2.004721E-01	0.000000E+00	5.278000E+01
-2.046174E-01	0.000000E+00	5.323000E+01
-2.131383E-01	0.000000E+00	5.367000E+01
-2.100677E-01	0.000000E+00	5.412000E+01
-2.004721E-01	0.000000E+00	5.456000E+01
-1.971712E-01	0.000000E+00	5.500000E+01
-2.003953E-01	0.000000E+00	5.544000E+01
-2.053083E-01	0.000000E+00	5.589000E+01
-2.065365E-01	0.000000E+00	5.633000E+01
-1.987065E-01	0.000000E+00	5.677000E+01
-1.662349E-01	0.000000E+00	5.722000E+01
-1.412094E-01	0.000000E+00	5.766000E+01
-1.683843E-01	0.000000E+00	5.811000E+01
-1.716852E-01	0.000000E+00	5.854000E+01
-1.588654E-01	0.000000E+00	5.899000E+01
-1.815879E-01	0.000000E+00	5.943000E+01
-1.871150E-01	0.000000E+00	5.988000E+01
-2.013165E-01	0.000000E+00	6.075000E+01
-1.982459E-01	0.000000E+00	6.120000E+01
-1.897250E-01	0.000000E+00	6.164000E+01
-1.872685E-01	0.000000E+00	6.209000E+01
-1.907997E-01	0.000000E+00	6.253000E+01
-1.914138E-01	0.000000E+00	6.298000E+01
-1.884967E-01	0.000000E+00	6.341000E+01
-1.822788E-01	0.000000E+00	6.386000E+01
-1.785173E-01	0.000000E+00	6.430000E+01
-1.873453E-01	0.000000E+00	6.474000E+01
-1.911835E-01	0.000000E+00	6.519000E+01
-2.048477E-01	0.000000E+00	6.563000E+01
-2.111425E-01	0.000000E+00	6.608000E+01
-2.080719E-01	0.000000E+00	6.651000E+01
-2.068436E-01	0.000000E+00	6.696000E+01
-2.026215E-01	0.000000E+00	6.740000E+01
-1.824323E-01	0.000000E+00	6.784000E+01
-2.002418E-01	0.000000E+00	6.829000E+01
-1.951753E-01	0.000000E+00	6.873000E+01
-1.957127E-01	0.000000E+00	6.918000E+01
-1.990136E-01	0.000000E+00	6.961000E+01
-1.813576E-01	0.000000E+00	7.006000E+01
-1.763678E-01	0.000000E+00	7.095000E+01
-1.729134E-01	0.000000E+00	7.139000E+01
-1.751396E-01	0.000000E+00	7.183000E+01
-1.833535E-01	0.000000E+00	7.228000E+01
-1.874220E-01	0.000000E+00	7.271000E+01
-1.839676E-01	0.000000E+00	7.316000E+01
-1.740649E-01	0.000000E+00	7.360000E+01
-1.742952E-01	0.000000E+00	7.405000E+01
-1.814343E-01	0.000000E+00	7.449000E+01
-1.876523E-01	0.000000E+00	7.494000E+01
-1.879594E-01	0.000000E+00	7.538000E+01
-1.791314E-01	0.000000E+00	7.582000E+01
-1.759073E-01	0.000000E+00	7.626000E+01
-1.742952E-01	0.000000E+00	7.670000E+01
-1.813576E-01	0.000000E+00	7.715000E+01
-1.874220E-01	0.000000E+00	7.759000E+01
-1.858100E-01	0.000000E+00	7.804000E+01
-1.802061E-01	0.000000E+00	7.848000E+01
-1.713013E-01	0.000000E+00	7.893000E+01
-1.739114E-01	0.000000E+00	7.937000E+01
-1.824323E-01	0.000000E+00	7.980000E+01
-1.842747E-01	0.000000E+00	8.069000E+01
-1.770587E-01	0.000000E+00	8.114000E+01
-1.768284E-01	0.000000E+00	8.158000E+01
-1.858100E-01	0.000000E+00	8.203000E+01
-1.890341E-01	0.000000E+00	8.246000E+01
-1.882664E-01	0.000000E+00	8.291000E+01
-1.813576E-01	0.000000E+00	8.335000E+01
-1.825858E-01	0.000000E+00	8.379000E+01
-1.921047E-01	0.000000E+00	8.424000E+01
-1.961733E-01	0.000000E+00	8.467000E+01
-1.930259E-01	0.000000E+00	8.512000E+01
-1.874988E-01	0.000000E+00	8.556000E+01
-1.870382E-01	0.000000E+00	8.601000E+01
-1.880362E-01	0.000000E+00	8.644000E+01
-1.931794E-01	0.000000E+00	8.689000E+01
-1.904926E-01	0.000000E+00	8.733000E+01
-1.858100E-01	0.000000E+00	8.777000E+01
-1.834302E-01	0.000000E+00	8.822000E+01
-1.855797E-01	0.000000E+00	8.866000E+01
-1.896482E-01	0.000000E+00	8.911000E+01
-1.884967E-01	0.000000E+00	8.954000E+01
-1.831232E-01	0.000000E+00	8.999000E+01
-1.818182E-01	0.000000E+00	9.087000E+01
-1.851191E-01	0.000000E+00	9.131000E+01
-1.860403E-01	0.000000E+00	9.174000E+01
-1.829696E-01	0.000000E+00	9.219000E+01
-1.788243E-01	0.000000E+00	9.263000E+01
-1.783637E-01	0.000000E+00	9.308000E+01
-1.826626E-01	0.000000E+00	9.352000E+01
-1.868847E-01	0.000000E+00	9.397000E+01
-1.841211E-01	0.000000E+00	9.441000E+01
-1.784405E-01	0.000000E+00	9.484000E+01
-1.765214E-01	0.000000E+00	9.529000E+01
-1.812808E-01	0.000000E+00	9.573000E+01
-1.858867E-01	0.000000E+00	9.618000E+01
-1.848120E-01	0.000000E+00	9.662000E+01
-1.799758E-01	0.000000E+00	9.707000E+01
-1.774426E-01	0.000000E+00	9.750000E+01
-1.798223E-01	0.000000E+00	9.795000E+01
-1.896482E-01	0.000000E+00	9.839000E+01
-1.853494E-01	0.000000E+00	9.884000E+01
-1.796688E-01	0.000000E+00	9.929000E+01
-1.764446E-01	0.000000E+00	9.973000E+01
-1.828161E-01	0.000000E+00	1.006100E+02
-1.839676E-01	0.000000E+00	1.010600E+02
-1.810505E-01	0.000000E+00	1.015000E+02
-1.771355E-01	0.000000E+00	1.019500E+02
-1.771355E-01	0.000000E+00	1.023900E+02
-1.814343E-01	0.000000E+00	1.028200E+02
-1.819717E-01	0.000000E+00	1.032700E+02
-1.793617E-01	0.000000E+00	1.037100E+02
-1.749093E-01	0.000000E+00	1.041600E+02
-1.753699E-01	0.000000E+00	1.046000E+02
-1.789011E-01	0.000000E+00	1.050500E+02
-1.819717E-01	0.000000E+00	1.054900E+02
-1.798223E-01	0.000000E+00	1.059400E+02
-1.759840E-01	0.000000E+00	1.063800E+02
-1.745255E-01	0.000000E+00	1.068400E+02
-1.769052E-01	0.000000E+00	1.072900E+02
-1.811273E-01	0.000000E+00	1.077300E+02
-1.815879E-01	0.000000E+00	1.081800E+02
-1.772123E-01	0.000000E+00	1.086200E+02
-1.728366E-01	0.000000E+00	1.090700E+02
-1.736043E-01	0.000000E+00	1.095000E+02
-1.751396E-01	0.000000E+00	1.099500E+02
-1.811273E-01	0.000000E+00	1.108300E+02
-1.768284E-01	0.000000E+00	1.112800E+02
-1.719922E-01	0.000000E+00	1.117200E+02
-1.737578E-01	0.000000E+00	1.121600E+02
-1.758305E-01	0.000000E+00	1.126000E+02
-1.798991E-01	0.000000E+00	1.130500E+02
-1.779799E-01	0.000000E+00	1.134900E+02
-1.720690E-01	0.000000E+00	1.139400E+02
-1.724528E-01	0.000000E+00	1.143700E+02
-1.742952E-01	0.000000E+00	1.148100E+02
-1.792082E-01	0.000000E+00	1.152600E+02
-1.782870E-01	0.000000E+00	1.157000E+02
-1.709943E-01	0.000000E+00	1.161500E+02
-1.718387E-01	0.000000E+00	1.165900E+02
-1.749861E-01	0.000000E+00	1.170400E+02
-1.778264E-01	0.000000E+00	1.174800E+02
-1.789011E-01	0.000000E+00	1.179300E+02
-1.718387E-01	0.000000E+00	1.183600E+02
-1.729902E-01	0.000000E+00	1.188000E+02
-1.746790E-01	0.000000E+00	1.192500E+02
-1.779799E-01	0.000000E+00	1.196900E+02
-1.802061E-01	0.000000E+00	1.205700E+02
-1.789778E-01	0.000000E+00	1.210200E+02
-1.889573E-01	0.000000E+00	1.214500E+02
-1.871917E-01	0.000000E+00	1.219000E+02
-1.885735E-01	0.000000E+00	1.223400E+02
-1.893411E-01	0.000000E+00	1.227800E+02
-1.865008E-01	0.000000E+00	1.232300E+02
-1.819717E-01	0.000000E+00	1.236700E+02
-1.811273E-01	0.000000E+00	1.241200E+02
-1.819717E-01	0.000000E+00	1.245500E+02
-1.652479E-01	0.000000E+00	1.250400E+02
-1.602810E-01	0.000000E+00	1.259300E+02
-1.591832E-01	0.000000E+00	1.263700E+02
-1.611715E-01	0.000000E+00	1.268100E+02
-1.655396E-01	0.000000E+00	1.272600E+02
-1.687639E-01	0.000000E+00	1.277000E+02
-1.669445E-01	0.000000E+00	1.281500E+02
-1.632212E-01	0.000000E+00	1.285900E+02
-1.619315E-01	0.000000E+00	1.290400E+02
-1.658313E-01	0.000000E+00	1.294700E+02
-1.691861E-01	0.000000E+00	1.299200E+02
-1.625303E-01	0.000000E+00	1.307900E+02
-1.624919E-01	0.000000E+00	1.312400E+02
-1.665529E-01	0.000000E+00	1.316800E+02
-1.697926E-01	0.000000E+00	1.321300E+02
-1.701917E-01	0.000000E+00	1.325700E+02
-1.667679E-01	0.000000E+00	1.330100E+02
-1.635820E-01	0.000000E+00	1.334500E+02
-1.644495E-01	0.000000E+00	1.339000E+02
-1.665529E-01	0.000000E+00	1.343400E+02
-1.711744E-01	0.000000E+00	1.347800E+02
-1.693550E-01	0.000000E+00	1.352200E+02
-1.660309E-01	0.000000E+00	1.356600E+02
-1.635359E-01	0.000000E+00	1.361100E+02
-1.645109E-01	0.000000E+00	1.365500E+02
-1.678580E-01	0.000000E+00	1.370000E+02
-1.695546E-01	0.000000E+00	1.374400E+02
-1.679348E-01	0.000000E+00	1.378900E+02
-1.649101E-01	0.000000E+00	1.383300E+02
-1.625149E-01	0.000000E+00	1.387700E+02
-1.634822E-01	0.000000E+00	1.392200E+02
-1.655012E-01	0.000000E+00	1.396500E+02
-1.640042E-01	0.000000E+00	1.405400E+02
-1.591448E-01	0.000000E+00	1.409900E+02
-1.591908E-01	0.000000E+00	1.414300E+02
-1.598741E-01	0.000000E+00	1.418700E+02
-1.616628E-01	0.000000E+00	1.423100E+02
-1.632903E-01	0.000000E+00	1.427500E+02
-1.609565E-01	0.000000E+00	1.432000E+02
-1.584078E-01	0.000000E+00	1.436400E+02
-1.538478E-01	0.000000E+00	1.440900E+02
-1.588147E-01	0.000000E+00	1.445300E+02
-1.598203E-01	0.000000E+00	1.449700E+02
-1.598664E-01	0.000000E+00	1.454100E+02
-1.560587E-01	0.000000E+00	1.458600E+02
-1.536942E-01	0.000000E+00	1.463000E+02
-1.548611E-01	0.000000E+00	1.467400E+02
-1.566114E-01	0.000000E+00	1.471900E+02
-1.573177E-01	0.000000E+00	1.476300E+02
-1.539629E-01	0.000000E+00	1.480700E+02
-1.509766E-01	0.000000E+00	1.485100E+02
-1.504546E-01	0.000000E+00	1.489600E+02
-1.516061E-01	0.000000E+00	1.494000E+02
-1.535407E-01	0.000000E+00	1.498400E+02
-1.504008E-01	0.000000E+00	1.507200E+02
-1.482283E-01	0.000000E+00	1.511700E+02
-1.481132E-01	0.000000E+00	1.516100E+02
-1.499326E-01	0.000000E+00	1.520600E+02
-1.511916E-01	0.000000E+00	1.525000E+02
-1.491419E-01	0.000000E+00	1.529500E+02
-1.453879E-01	0.000000E+00	1.533900E+02
-1.440675E-01	0.000000E+00	1.538300E+02
-1.456182E-01	0.000000E+00	1.542800E+02
-1.474530E-01	0.000000E+00	1.547200E+02
-1.466469E-01	0.000000E+00	1.551700E+02
-1.446970E-01	0.000000E+00	1.556000E+02
-1.109419E-01	0.000000E+00	1.560500E+02
-8.147048E-02	0.000000E+00	1.564900E+02
-8.176221E-02	0.000000E+00	1.569400E+02
-1.289441E-01	0.000000E+00	1.573800E+02
-1.253206E-01	0.000000E+00	1.578200E+02
-7.598922E-02	0.000000E+00	1.582600E+02
-1.168991E-01	0.000000E+00	1.587000E+02
-9.308555E-02	0.000000E+00	1.591500E+02
-6.640085E-02	0.000000E+00	1.595900E+02
-7.086109E-02	0.000000E+00	1.600400E+02
-8.269878E-02	0.000000E+00	1.609300E+02
-7.817712E-02	0.000000E+00	1.613700E+02
-7.958198E-02	0.000000E+00	1.618000E+02
-7.838440E-02	0.000000E+00	1.622500E+02
-8.897844E-02	0.000000E+00	1.626900E+02
-9.455950E-02	0.000000E+00	1.631400E+02
-1.007087E-01	0.000000E+00	1.635900E+02
-7.081503E-02	0.000000E+00	1.640400E+02
-7.877591E-02	0.000000E+00	1.644700E+02
-7.420052E-02	0.000000E+00	1.649200E+02
-9.376878E-02	0.000000E+00	1.653600E+02
-8.732791E-02	0.000000E+00	1.658000E+02
-8.798044E-02	0.000000E+00	1.662500E+02
-1.024743E-01	0.000000E+00	1.666800E+02
-1.069192E-01	0.000000E+00	1.671300E+02
-1.158320E-01	0.000000E+00	1.675700E+02
-1.003325E-01	0.000000E+00	1.680200E+02
-1.058368E-01	0.000000E+00	1.684500E+02
-1.041325E-01	0.000000E+00	1.689000E+02
-1.009927E-01	0.000000E+00	1.693400E+02
-8.068745E-02	0.000000E+00	1.697800E+02
-8.917803E-02	0.000000E+00	1.706700E+02
-9.248675E-02	0.000000E+00	1.711200E+02
-1.056449E-01	0.000000E+00	1.715500E+02
-1.090073E-01	0.000000E+00	1.720000E+02
-1.127383E-01	0.000000E+00	1.724500E+02
-8.646043E-02	0.000000E+00	1.729000E+02
-7.636538E-02	0.000000E+00	1.733300E+02
-8.613033E-02	0.000000E+00	1.737700E+02
-1.021135E-01	0.000000E+00	1.742200E+02
-1.060517E-01	0.000000E+00	1.746500E+02
-1.064126E-01	0.000000E+00	1.751000E+02
-1.038869E-01	0.000000E+00	1.755400E+02
-7.896783E-02	0.000000E+00	1.759900E+02
-8.983824E-02	0.000000E+00	1.764300E+02
-7.713307E-02	0.000000E+00	1.768800E+02
-9.247908E-02	0.000000E+00	1.773200E+02
-8.495577E-02	0.000000E+00	1.777500E+02
-7.617347E-02	0.000000E+00	1.782000E+02
-7.869147E-02	0.000000E+00	1.786400E+02
-9.646336E-02	0.000000E+00	1.790900E+02
-7.188211E-02	0.000000E+00	1.795300E+02
-7.695650E-02	0.000000E+00	1.799800E+02
-5.500073E-02	0.000000E+00	1.808600E+02
-6.958673E-02	0.000000E+00	1.813000E+02
-9.011461E-02	0.000000E+00	1.817400E+02
-9.358454E-02	0.000000E+00	1.821900E+02
-9.429849E-02	0.000000E+00	1.826300E+02
-8.082563E-02	0.000000E+00	1.830700E+02
-5.132353E-02	0.000000E+00	1.835100E+02
-8.927783E-02	0.000000E+00	1.839600E+02
-7.549790E-02	0.000000E+00	1.844000E+02
-9.132756E-02	0.000000E+00	1.848400E+02
-7.995815E-02	0.000000E+00	1.852900E+02
-9.627912E-02	0.000000E+00	1.857300E+02
-6.458143E-02	0.000000E+00	1.861700E+02
-8.639134E-02	0.000000E+00	1.866100E+02
-8.231494E-02	0.000000E+00	1.870900E+02
-9.400677E-02	0.000000E+00	1.875300E+02
-9.791429E-02	0.000000E+00	1.879800E+02
-9.783752E-02	0.000000E+00	1.884100E+02
-9.686256E-02	0.000000E+00	1.888700E+02
-9.832884E-02	0.000000E+00	1.893100E+02
-9.964158E-02	0.000000E+00	1.897500E+02
-1.015378E-01	0.000000E+00	1.906300E+02
-9.909652E-02	0.000000E+00	1.910800E+02
-9.928844E-02	0.000000E+00	1.915100E+02
-9.915026E-02	0.000000E+00	1.919600E+02
-1.044550E-01	0.000000E+00	1.924000E+02
-1.017681E-01	0.000000E+00	1.928500E+02
-1.005474E-01	0.000000E+00	1.933000E+02
-1.008161E-01	0.000000E+00	1.937400E+02
-1.031806E-01	0.000000E+00	1.941800E+02
-1.046469E-01	0.000000E+00	1.946200E+02
-1.042400E-01	0.000000E+00	1.950700E+02
-1.011923E-01	0.000000E+00	1.955100E+02
-9.542698E-02	0.000000E+00	1.959600E+02
-8.466405E-02	0.000000E+00	1.964000E+02
-8.861762E-02	0.000000E+00	1.968300E+02
-5.179181E-02	0.000000E+00	1.972800E+02
-5.397971E-02	0.000000E+00	1.977200E+02
-5.470901E-02	0.000000E+00	1.981700E+02
-4.820673E-02	0.000000E+00	1.986100E+02
-7.391647E-02	0.000000E+00	1.990600E+02
-7.190514E-02	0.000000E+00	1.995000E+02
-4.945038E-02	0.000000E+00	1.999500E+02
-4.508993E-02	0.000000E+00	2.008200E+02
-4.565034E-02	0.000000E+00	2.012700E+02
-5.089363E-02	0.000000E+00	2.017100E+02
-5.073241E-02	0.000000E+00	2.021600E+02
-6.727600E-02	0.000000E+00	2.026000E+02
-7.225827E-02	0.000000E+00	2.030500E+02
-7.668013E-02	0.000000E+00	2.034900E+02
-8.167008E-02	0.000000E+00	2.039300E+02
-8.375051E-02	0.000000E+00	2.043700E+02
-8.308262E-02	0.000000E+00	2.048100E+02
-8.296748E-02	0.000000E+00	2.052600E+02
-8.472546E-02	0.000000E+00	2.057000E+02
-8.801883E-02	0.000000E+00	2.061500E+02
-9.010693E-02	0.000000E+00	2.065800E+02
-9.032957E-02	0.000000E+00	2.070300E+02
-8.814934E-02	0.000000E+00	2.074700E+02
-8.686731E-02	0.000000E+00	2.079200E+02
-8.970773E-02	0.000000E+00	2.083600E+02
-9.077482E-02	0.000000E+00	2.088000E+02
-9.283222E-02	0.000000E+00	2.092500E+02
-9.183422E-02	0.000000E+00	2.096900E+02
-9.006087E-02	0.000000E+00	2.105800E+02
-9.010693E-02	0.000000E+00	2.110200E+02
-9.229483E-02	0.000000E+00	2.114600E+02
-9.429081E-02	0.000000E+00	2.119100E+02
-9.386091E-02	0.000000E+00	2.123500E+02
-9.115098E-02	0.000000E+00	2.127800E+02
-9.029885E-02	0.000000E+00	2.132300E+02
-9.020673E-02	0.000000E+00	2.136700E+02
-9.213362E-02	0.000000E+00	2.141200E+02
-9.362293E-02	0.000000E+00	2.145600E+02
-9.366132E-02	0.000000E+00	2.150100E+02
-9.126614E-02	0.000000E+00	2.154500E+02
-8.996107E-02	0.000000E+00	2.159000E+02
-8.981521E-02	0.000000E+00	2.163300E+02
-9.034491E-02	0.000000E+00	2.167700E+02
-9.253281E-02	0.000000E+00	2.172200E+02
-9.282454E-02	0.000000E+00	2.176600E+02
-9.214897E-02	0.000000E+00	2.181100E+02
-8.903217E-02	0.000000E+00	2.185500E+02
-8.827217E-02	0.000000E+00	2.190000E+02
-8.891702E-02	0.000000E+00	2.194400E+02
-8.984593E-02	0.000000E+00	2.198900E+02
-9.149645E-02	0.000000E+00	2.207600E+02
-8.981521E-02	0.000000E+00	2.212100E+02
-8.751217E-02	0.000000E+00	2.216500E+02
-8.658326E-02	0.000000E+00	2.221000E+02
-8.751984E-02	0.000000E+00	2.225400E+02
-8.900147E-02	0.000000E+00	2.229900E+02
-8.989966E-02	0.000000E+00	2.234300E+02
-9.034491E-02	0.000000E+00	2.238700E+02
-8.900147E-02	0.000000E+00	2.243100E+02
-8.713599E-02	0.000000E+00	2.247500E+02
-8.557760E-02	0.000000E+00	2.252000E+02
-8.570043E-02	0.000000E+00	2.256400E+02
-8.724347E-02	0.000000E+00	2.260800E+02
-8.879419E-02	0.000000E+00	2.265200E+02
-8.913965E-02	0.000000E+00	2.269700E+02
-8.818004E-02	0.000000E+00	2.274100E+02
-8.578487E-02	0.000000E+00	2.278600E+02
-8.462567E-02	0.000000E+00	2.283000E+02
-8.537032E-02	0.000000E+00	2.287400E+02
-8.631457E-02	0.000000E+00	2.291900E+02
-8.783459E-02	0.000000E+00	2.296300E+02
-8.803419E-02	0.000000E+00	2.300800E+02
-8.416505E-02	0.000000E+00	2.309600E+02
-8.367374E-02	0.000000E+00	2.314000E+02
-8.429556E-02	0.000000E+00	2.318400E+02
-8.583093E-02	0.000000E+00	2.322800E+02
-8.698246E-02	0.000000E+00	2.327200E+02
-8.621477E-02	0.000000E+00	2.331700E+02
-8.393475E-02	0.000000E+00	2.336100E+02
-8.170079E-02	0.000000E+00	2.340600E+02
-8.212302E-02	0.000000E+00	2.345000E+02
-8.353556E-02	0.000000E+00	2.349500E+02
-8.572345E-02	0.000000E+00	2.353900E+02
-8.603821E-02	0.000000E+00	2.358200E+02
-8.375051E-02	0.000000E+00	2.362700E+02
-8.127089E-02	0.000000E+00	2.367100E+02
-8.127857E-02	0.000000E+00	2.371600E+02
-8.246080E-02	0.000000E+00	2.376000E+02
-8.470244E-02	0.000000E+00	2.380500E+02
-8.607659E-02	0.000000E+00	2.384900E+02
-8.403455E-02	0.000000E+00	2.389400E+02
-8.132463E-02	0.000000E+00	2.393800E+02
-8.018077E-02	0.000000E+00	2.398200E+02
-8.307494E-02	0.000000E+00	2.407000E+02
-8.448748E-02	0.000000E+00	2.411500E+02
-8.351252E-02	0.000000E+00	2.415900E+02
-8.196948E-02	0.000000E+00	2.420300E+02
-7.912905E-02	0.000000E+00	2.424800E+02
-7.879127E-02	0.000000E+00	2.429300E+02
-8.102523E-02	0.000000E+00	2.433700E+02
-8.405758E-02	0.000000E+00	2.438100E+02
-8.378889E-02	0.000000E+00	2.442600E+02
-8.196948E-02	0.000000E+00	2.446900E+02
-7.900622E-02	0.000000E+00	2.451400E+02
-7.798520E-02	0.000000E+00	2.455800E+02
-7.857631E-02	0.000000E+00	2.460300E+02
-8.105594E-02	0.000000E+00	2.464600E+02
-8.271413E-02	0.000000E+00	2.469100E+02
-8.252990E-02	0.000000E+00	2.473600E+02
-8.038805E-02	0.000000E+00	2.477900E+02
-7.791611E-02	0.000000E+00	2.482500E+02
-7.755530E-02	0.000000E+00	2.486800E+02
-7.828460E-02	0.000000E+00	2.491300E+02
-8.073351E-02	0.000000E+00	2.495700E+02
-8.248383E-02	0.000000E+00	2.500200E+02
-8.089472E-02	0.000000E+00	2.509100E+02
-7.803894E-02	0.000000E+00	2.513500E+02
-7.704095E-02	0.000000E+00	2.517800E+02
-7.806197E-02	0.000000E+00	2.522300E+02
-8.014239E-02	0.000000E+00	2.526700E+02
-8.229191E-02	0.000000E+00	2.531200E+02
-8.087938E-02	0.000000E+00	2.535600E+02
-7.937471E-02	0.000000E+00	2.540100E+02
-7.707166E-02	0.000000E+00	2.544500E+02
-7.624255E-02	0.000000E+00	2.549000E+02
-7.762439E-02	0.000000E+00	2.553400E+02
-7.992744E-02	0.000000E+00	2.557700E+02
-8.120180E-02	0.000000E+00	2.562200E+02
-8.037270E-02	0.000000E+00	2.566600E+02
-7.823086E-02	0.000000E+00	2.571100E+02
-7.555164E-02	0.000000E+00	2.575500E+02
-7.516012E-02	0.000000E+00	2.580000E+02
-7.715610E-02	0.000000E+00	2.584400E+02
-7.962036E-02	0.000000E+00	2.588900E+02
-7.982764E-02	0.000000E+00	2.593300E+02
-7.843046E-02	0.000000E+00	2.597700E+02
-7.373223E-02	0.000000E+00	2.606600E+02
-7.397021E-02	0.000000E+00	2.611100E+02
-7.549023E-02	0.000000E+00	2.615400E+02
-7.693347E-02	0.000000E+00	2.619900E+02
-7.743247E-02	0.000000E+00	2.624300E+02
-7.510638E-02	0.000000E+00	2.628800E+02
-7.193585E-02	0.000000E+00	2.633100E+02
-7.036210E-02	0.000000E+00	2.637600E+02
-7.053098E-02	0.000000E+00	2.642100E+02
-7.261141E-02	0.000000E+00	2.646500E+02
-7.360940E-02	0.000000E+00	2.651000E+02
-7.354798E-02	0.000000E+00	2.655300E+02
-7.140615E-02	0.000000E+00	2.659800E+02
-6.786712E-02	0.000000E+00	2.664200E+02
-6.625499E-02	0.000000E+00	2.669000E+02
-6.628569E-02	0.000000E+00	2.673400E+02
-6.752166E-02	0.000000E+00	2.677700E+02
-6.831238E-02	0.000000E+00	2.682200E+02
-6.782874E-02	0.000000E+00	2.686600E+02
-6.551033E-02	0.000000E+00	2.691100E+02
-6.293091E-02	0.000000E+00	2.695500E+02
-6.179474E-02	0.000000E+00	2.700000E+02
-6.349900E-02	0.000000E+00	2.708900E+02
-6.442790E-02	0.000000E+00	2.713300E+02
-6.384446E-02	0.000000E+00	2.717600E+02
-6.081978E-02	0.000000E+00	2.722100E+02
-5.870097E-02	0.000000E+00	2.726500E+02
-5.750338E-02	0.000000E+00	2.731000E+02
-5.780278E-02	0.000000E+00	2.735400E+02
-5.888521E-02	0.000000E+00	2.739900E+02
-5.910785E-02	0.000000E+00	2.744200E+02
-5.761854E-02	0.000000E+00	2.748700E+02
-5.506983E-02	0.000000E+00	2.753200E+02
-5.354981E-02	0.000000E+00	2.757600E+02
-5.331951E-02	0.000000E+00	2.762100E+02
-5.457851E-02	0.000000E+00	2.766400E+02
-5.531549E-02	0.000000E+00	2.770900E+02
-5.411790E-02	0.000000E+00	2.775300E+02
-5.153848E-02	0.000000E+00	2.779800E+02
-4.937361E-02	0.000000E+00	2.784200E+02
-4.857522E-02	0.000000E+00	2.788700E+02
-4.914331E-02	0.000000E+00	2.793100E+02
-5.035624E-02	0.000000E+00	2.797400E+02
-4.991866E-02	0.000000E+00	2.806300E+02
-4.690167E-02	0.000000E+00	2.810800E+02
-4.518973E-02	0.000000E+00	2.815200E+02
-4.438366E-02	0.000000E+00	2.819700E+02
-4.379255E-02	0.000000E+00	2.824100E+02
-4.469841E-02	0.000000E+00	2.828400E+02
-4.541236E-02	0.000000E+00	2.832900E+02
-4.588065E-02	0.000000E+00	2.837300E+02
-4.509761E-02	0.000000E+00	2.841800E+02
-4.419942E-02	0.000000E+00	2.846200E+02
-4.192707E-02	0.000000E+00	2.850700E+02
-3.993877E-02	0.000000E+00	2.855100E+02
-3.971614E-02	0.000000E+00	2.859600E+02
-3.958564E-02	0.000000E+00	2.863900E+02
-4.065271E-02	0.000000E+00	2.868300E+02
-4.135899E-02	0.000000E+00	2.872800E+02
-4.183495E-02	0.000000E+00	2.877200E+02
-4.119010E-02	0.000000E+00	2.881700E+02
-3.979291E-02	0.000000E+00	2.886100E+02
-3.775087E-02	0.000000E+00	2.890600E+02
-3.680662E-02	0.000000E+00	2.894900E+02
-3.653025E-02	0.000000E+00	2.899400E+02
-3.817310E-02	0.000000E+00	2.908100E+02
-3.897917E-02	0.000000E+00	2.912600E+02
-3.897917E-02	0.000000E+00	2.917000E+02
-3.796582E-02	0.000000E+00	2.921400E+02
-3.723652E-02	0.000000E+00	2.925800E+02
-3.508700E-02	0.000000E+00	2.930300E+02
-2.162950E-02	0.000000E+00	2.934700E+02
-2.613965E-03	0.000000E+00	2.939200E+02
-2.742552E-02	0.000000E+00	2.943600E+02
-1.727673E-02	0.000000E+00	2.948000E+02
-2.571749E-04	0.000000E+00	2.952500E+02
-2.574429E-02	0.000000E+00	2.956900E+02
-3.005100E-02	0.000000E+00	2.961400E+02
-2.754067E-02	0.000000E+00	2.965700E+02
7.189362E-03	0.000000E+00	2.970200E+02
-1.339610E-03	0.000000E+00	2.974600E+02
-1.002979E-02	0.000000E+00	2.979200E+02
-1.609450E-02	0.000000E+00	2.983600E+02
-2.053939E-02	0.000000E+00	2.987900E+02
-2.466953E-02	0.000000E+00	2.992400E+02
-2.624328E-02	0.000000E+00	2.996800E+02
-2.744855E-02	0.000000E+00	3.005600E+02
-2.655036E-02	0.000000E+00	3.010100E+02
-2.579803E-02	0.000000E+00	3.014500E+02
-2.570591E-02	0.000000E+00	3.018900E+02
-2.622793E-02	0.000000E+00	3.023300E+02
-2.785542E-02	0.000000E+00	3.027700E+02
-3.177061E-02	0.000000E+00	3.032200E+02
-2.956736E-02	0.000000E+00	3.036600E+02
-2.164486E-02	0.000000E+00	3.041100E+02
-3.411972E-02	0.000000E+00	3.045500E+02
-2.225900E-02	0.000000E+00	3.049900E+02
-2.703400E-02	0.000000E+00	3.054300E+02
-1.640925E-02	0.000000E+00	3.058800E+02
-2.533742E-02	0.000000E+00	3.063200E+02
-2.591318E-02	0.000000E+00	3.067600E+02
-2.638147E-02	0.000000E+00	3.072100E+02
-2.734875E-02	0.000000E+00	3.076500E+02
1.247486E-03	0.000000E+00	3.081000E+02
-5.423690E-03	0.000000E+00	3.085300E+02
-1.148840E-02	0.000000E+00	3.089900E+02
-1.463590E-02	0.000000E+00	3.094200E+02
-1.662420E-02	0.000000E+00	3.098700E+02
-2.049333E-02	0.000000E+00	3.107400E+02
-2.115354E-02	0.000000E+00	3.111900E+02
-2.239719E-02	0.000000E+00	3.116300E+02
-2.282709E-02	0.000000E+00	3.120700E+02
-3.462639E-02	0.000000E+00	3.125200E+02
-2.691117E-02	0.000000E+00	3.129700E+02
-1.429812E-02	0.000000E+00	3.134100E+02
-1.980242E-02	0.000000E+00	3.138400E+02
-2.715683E-02	0.000000E+00	3.142900E+02
-2.952897E-02	0.000000E+00	3.147300E+02
-2.565217E-02	0.000000E+00	3.151800E+02
-2.724127E-02	0.000000E+00	3.156200E+02
-9.830197E-03	0.000000E+00	3.160700E+02
-1.879675E-02	0.000000E+00	3.165100E+02
-2.774795E-02	0.000000E+00	3.169600E+02
-1.915756E-02	0.000000E+00	3.173900E+02
1.290861E-02	0.000000E+00	3.178300E+02
4.874789E-04	0.000000E+00	3.182800E+02
-6.283497E-03	0.000000E+00	3.187200E+02
-1.104314E-02	0.000000E+00	3.191700E+02
-1.342296E-02	0.000000E+00	3.196100E+02
-1.519631E-02	0.000000E+00	3.200600E+02
-1.756845E-02	0.000000E+00	3.209400E+02
-1.842058E-02	0.000000E+00	3.213800E+02
-1.984080E-02	0.000000E+00	3.218200E+02
-1.924968E-02	0.000000E+00	3.222700E+02
-2.472327E-02	0.000000E+00	3.227100E+02
-1.898099E-02	0.000000E+00	3.231600E+02
-2.188284E-02	0.000000E+00	3.236000E+02
-1.762219E-02	0.000000E+00	3.240500E+02
-2.189052E-02	0.000000E+00	3.244900E+02
-3.223122E-02	0.000000E+00	3.249400E+02
-2.808573E-02	0.000000E+00	3.253700E+02
-2.464650E-02	0.000000E+00	3.258100E+02
-1.699269E-02	0.000000E+00	3.262600E+02
-8.632610E-03	0.000000E+00	3.267000E+02
-2.880735E-02	0.000000E+00	3.271500E+02
-2.607439E-02	0.000000E+00	3.275900E+02
5.477426E-03	0.000000E+00	3.280400E+02
1.065162E-02	0.000000E+00	3.284700E+02
-1.101627E-03	0.000000E+00	3.289200E+02
-6.467741E-03	0.000000E+00	3.293600E+02
-9.231403E-03	0.000000E+00	3.298000E+02
-1.299306E-02	0.000000E+00	3.306800E+02
-1.465125E-02	0.000000E+00	3.311400E+02
-1.339225E-02	0.000000E+00	3.315700E+02
-3.478761E-02	0.000000E+00	3.320300E+02
-2.883806E-02	0.000000E+00	3.324700E+02
-2.711844E-02	0.000000E+00	3.329200E+02
-2.200567E-02	0.000000E+00	3.333500E+02
-2.227436E-02	0.000000E+00	3.337900E+02
-2.879967E-02	0.000000E+00	3.342400E+02
-2.236648E-02	0.000000E+00	3.346700E+02
-2.516853E-02	0.000000E+00	3.351200E+02
1.158819E-02	0.000000E+00	3.355600E+02
-2.328770E-02	0.000000E+00	3.360200E+02
-2.803966E-02	0.000000E+00	3.364500E+02
-1.538055E-02	0.000000E+00	3.369100E+02
7.465728E-03	0.000000E+00	3.373400E+02
3.089928E-03	0.000000E+00	3.377800E+02
-3.381650E-03	0.000000E+00	3.382300E+02
-7.757450E-03	0.000000E+00	3.386700E+02
-1.156516E-02	0.000000E+00	3.391200E+02
-1.379912E-02	0.000000E+00	3.395500E+02
-1.464358E-02	0.000000E+00	3.400000E+02
-9.983733E-03	0.000000E+00	3.408900E+02
-2.906836E-02	0.000000E+00	3.413300E+02
-2.516085E-02	0.000000E+00	3.417700E+02
-2.131475E-02	0.000000E+00	3.422200E+02
-3.027363E-02	0.000000E+00	3.426500E+02
-3.535187E-03	0.000000E+00	3.431000E+02
-2.959806E-02	0.000000E+00	3.435400E+02
-1.752239E-02	0.000000E+00	3.439900E+02
-2.516853E-02	0.000000E+00	3.444200E+02
-3.339432E-04	0.000000E+00	3.448700E+02
-2.892250E-02	0.000000E+00	3.453100E+02
-2.549863E-02	0.000000E+00	3.457500E+02
-2.341821E-02	0.000000E+00	3.462000E+02
2.847725E-02	0.000000E+00	3.466400E+02
6.705720E-03	0.000000E+00	3.471100E+02
5.642473E-04	0.000000E+00	3.475500E+02
-4.195395E-03	0.000000E+00	3.480000E+02
-7.411992E-03	0.000000E+00	3.484300E+02
-1.010656E-02	0.000000E+00	3.488800E+02
-1.230982E-02	0.000000E+00	3.493200E+02
-1.400640E-02	0.000000E+00	3.497600E+02
-1.475105E-02	0.000000E+00	3.506500E+02
-3.285304E-02	0.000000E+00	3.510900E+02
-3.101060E-02	0.000000E+00	3.515300E+02
-3.185506E-02	0.000000E+00	3.519800E+02
-1.880443E-02	0.000000E+00	3.524200E+02
-1.028313E-02	0.000000E+00	3.528700E+02
-2.750996E-02	0.000000E+00	3.533100E+02
-2.681905E-02	0.000000E+00	3.537400E+02
-2.249699E-02	0.000000E+00	3.541900E+02
5.039846E-03	0.000000E+00	3.546300E+02
-2.329538E-02	0.000000E+00	3.550800E+02
-2.571359E-02	0.000000E+00	3.555200E+02
-1.826705E-02	0.000000E+00	3.559700E+02
2.899927E-02	0.000000E+00	3.564000E+02
1.312356E-02	0.000000E+00	3.568400E+02
4.279839E-03	0.000000E+00	3.572900E+02
-1.769513E-03	0.000000E+00	3.577300E+02
-6.774814E-03	0.000000E+00	3.581800E+02
-9.093220E-03	0.000000E+00	3.586200E+02
-9.400294E-03	0.000000E+00	3.590700E+02
-9.684337E-03	0.000000E+00	3.595000E+02
-1.056717E-02	0.000000E+00	3.599500E+02
-2.671157E-02	0.000000E+00	3.608200E+02
-2.483075E-02	0.000000E+00	3.612700E+02
-2.569823E-02	0.000000E+00	3.617100E+02
-2.332609E-02	0.000000E+00	3.621600E+02
-2.659642E-02	0.000000E+00	3.626000E+02
-2.620490E-02	0.000000E+00	3.630400E+02
-2.037818E-02	0.000000E+00	3.634800E+02
-2.491519E-02	0.000000E+00	3.639300E+02
1.313891E-02	0.000000E+00	3.643700E+02
-4.057212E-03	0.000000E+00	3.648100E+02
-2.540651E-02	0.000000E+00	3.652600E+02
-2.349498E-02	0.000000E+00	3.657000E+02
2.205941E-02	0.000000E+00	3.661500E+02
8.955035E-03	0.000000E+00	3.665800E+02
2.844269E-03	0.000000E+00	3.670400E+02
-1.193750E-03	0.000000E+00	3.674800E+02
-5.024494E-03	0.000000E+00	3.679300E+02
-8.586548E-03	0.000000E+00	3.683700E+02
-1.019869E-02	0.000000E+00	3.688100E+02
-1.092031E-02	0.000000E+00	3.692600E+02
-1.052879E-02	0.000000E+00	3.697000E+02
-1.984848E-02	0.000000E+00	3.705800E+02
-1.081283E-02	0.000000E+00	3.710300E+02
-2.698794E-02	0.000000E+00	3.714700E+02
-2.516085E-02	0.000000E+00	3.719300E+02
-2.154506E-02	0.000000E+00	3.723700E+02
-2.367155E-02	0.000000E+00	3.728000E+02
-2.102303E-02	0.000000E+00	3.732500E+02
-1.703875E-02	0.000000E+00	3.736900E+02
-2.324164E-02	0.000000E+00	3.741400E+02
3.027362E-02	0.000000E+00	3.745800E+02
-2.328770E-02	0.000000E+00	3.750300E+02
-2.376367E-02	0.000000E+00	3.754700E+02
-1.614056E-02	0.000000E+00	3.759200E+02
1.412155E-02	0.000000E+00	3.763600E+02
7.373606E-03	0.000000E+00	3.767900E+02
1.308901E-03	0.000000E+00	3.772400E+02
-8.294828E-03	0.000000E+00	3.776800E+02
-5.853592E-03	0.000000E+00	3.781300E+02
-6.790168E-03	0.000000E+00	3.785700E+02
-8.932007E-03	0.000000E+00	3.790200E+02
-1.030616E-02	0.000000E+00	3.794600E+02
-2.745623E-02	0.000000E+00	3.799100E+02
-2.747926E-02	0.000000E+00	3.807800E+02
-2.502267E-02	0.000000E+00	3.812300E+02
-2.366387E-02	0.000000E+00	3.816700E+02
-2.354104E-02	0.000000E+00	3.821200E+02
-2.222062E-02	0.000000E+00	3.825600E+02
-2.030909E-02	0.000000E+00	3.830000E+02
-1.924968E-02	0.000000E+00	3.834400E+02
-1.821331E-02	0.000000E+00	3.838900E+02
5.262475E-03	0.000000E+00	3.843300E+02
-2.184445E-02	0.000000E+00	3.847700E+02
-1.399872E-02	0.000000E+00	3.852200E+02
2.562914E-02	0.000000E+00	3.856600E+02
1.972564E-02	0.000000E+00	3.861000E+02
9.377262E-03	0.000000E+00	3.865400E+02
-2.767502E-03	0.000000E+00	3.869900E+02
-7.373608E-03	0.000000E+00	3.874300E+02
-5.009140E-03	0.000000E+00	3.878800E+02
-2.237800E-03	0.000000E+00	3.883200E+02
-1.111991E-02	0.000000E+00	3.887600E+02
4.663681E-03	0.000000E+00	3.892000E+02
-1.667794E-02	0.000000E+00	3.896400E+02
-1.948767E-02	0.000000E+00	3.900900E+02
-2.370993E-02	0.000000E+00	3.909700E+02
-2.381740E-02	0.000000E+00	3.914100E+02
-2.233577E-02	0.000000E+00	3.918600E+02
-2.173698E-02	0.000000E+00	3.923000E+02
-1.227911E-02	0.000000E+00	3.927400E+02
-2.115354E-02	0.000000E+00	3.931900E+02
-1.956443E-02	0.000000E+00	3.936300E+02
-6.129959E-03	0.000000E+00	3.940800E+02
-2.064687E-02	0.000000E+00	3.945200E+02
-2.053172E-02	0.000000E+00	3.949600E+02
-6.552185E-03	0.000000E+00	3.954000E+02
1.819028E-02	0.000000E+00	3.958400E+02
7.918661E-03	0.000000E+00	3.962900E+02
1.423670E-02	0.000000E+00	3.967300E+02
-3.646506E-04	0.000000E+00	3.971800E+02
1.919154E-05	0.000000E+00	3.976200E+02
-1.227143E-02	0.000000E+00	3.980700E+02
-1.735350E-02	0.000000E+00	3.985100E+02
-9.454032E-03	0.000000E+00	3.989500E+02
-6.552185E-03	0.000000E+00	3.993900E+02
-2.149900E-02	0.000000E+00	3.998300E+02
-2.054707E-02	0.000000E+00	4.007100E+02
-2.319558E-02	0.000000E+00	4.011600E+02
-2.235880E-02	0.000000E+00	4.016000E+02
-2.165253E-02	0.000000E+00	4.020400E+02
-1.651673E-02	0.000000E+00	4.024800E+02
-2.085414E-02	0.000000E+00	4.029300E+02
-1.938787E-02	0.000000E+00	4.033700E+02
5.584903E-03	0.000000E+00	4.038100E+02
-2.184446E-02	0.000000E+00	4.042600E+02
-2.146829E-02	0.000000E+00	4.046900E+02
-4.732774E-03	0.000000E+00	4.051400E+02
2.154506E-02	0.000000E+00	4.055800E+02
-9.941516E-04	0.000000E+00	4.060300E+02
6.943703E-03	0.000000E+00	4.064700E+02
-7.895633E-03	0.000000E+00	4.069300E+02
8.978067E-03	0.000000E+00	4.073700E+02
-3.289527E-03	0.000000E+00	4.078000E+02
-1.052879E-02	0.000000E+00	4.082500E+02
-2.632006E-02	0.000000E+00	4.086900E+02
-1.729209E-02	0.000000E+00	4.091400E+02
8.636443E-04	0.000000E+00	4.095800E+02
-1.593329E-02	0.000000E+00	4.100300E+02
-2.238183E-02	0.000000E+00	4.109200E+02
-2.259679E-02	0.000000E+00	4.113500E+02
-2.043959E-02	0.000000E+00	4.117900E+02
-2.060081E-02	0.000000E+00	4.122400E+02
-1.683148E-02	0.000000E+00	4.126800E+02
-1.942625E-02	0.000000E+00	4.131300E+02
-1.347286E-03	0.000000E+00	4.135700E+02
-2.137617E-02	0.000000E+00	4.140200E+02
-2.030141E-02	0.000000E+00	4.144500E+02
-9.085543E-03	0.000000E+00	4.149000E+02
5.861268E-03	0.000000E+00	4.153400E+02
9.945349E-03	0.000000E+00	4.157800E+02
-9.787980E-04	0.000000E+00	4.162300E+02
-5.178031E-03	0.000000E+00	4.166700E+02
-1.801371E-02	0.000000E+00	4.171200E+02
-1.911918E-02	0.000000E+00	4.175500E+02
-1.772967E-02	0.000000E+00	4.180000E+02
-2.392488E-02	0.000000E+00	4.184400E+02
-9.715045E-03	0.000000E+00	4.188900E+02
-1.160355E-02	0.000000E+00	4.193300E+02
-1.852038E-02	0.000000E+00	4.197700E+02
-1.525773E-02	0.000000E+00	4.206600E+02
-1.969494E-02	0.000000E+00	4.211000E+02
-2.070828E-02	0.000000E+00	4.215400E+02
-1.276275E-02	0.000000E+00	4.219900E+02
-1.411388E-02	0.000000E+00	4.224300E+02
-1.470499E-02	0.000000E+00	4.228800E+02
-1.463590E-02	0.000000E+00	4.233300E+02
2.609742E-02	0.000000E+00	4.237600E+02
-2.129172E-02	0.000000E+00	4.242100E+02
-1.957211E-02	0.000000E+00	4.246500E+02
-1.211790E-02	0.000000E+00	4.250900E+02
1.523469E-02	0.000000E+00	4.255300E+02
-1.868160E-02	0.000000E+00	4.259800E+02
-2.297295E-02	0.000000E+00	4.264200E+02
-1.825169E-02	0.000000E+00	4.269000E+02
-2.040121E-02	0.000000E+00	4.273400E+02
-1.634784E-02	0.000000E+00	4.277800E+02
-1.736886E-02	0.000000E+00	4.282300E+02
-1.728441E-02	0.000000E+00	4.286700E+02
-2.004807E-02	0.000000E+00	4.291100E+02
-1.573369E-02	0.000000E+00	4.295500E+02
-1.317730E-02	0.000000E+00	4.300000E+02
-1.618662E-02	0.000000E+00	4.308900E+02
-1.303144E-02	0.000000E+00	4.313300E+02
-1.325407E-02	0.000000E+00	4.317600E+02
1.300073E-02	0.000000E+00	4.322100E+02
-1.283184E-02	0.000000E+00	4.326500E+02
-1.220234E-02	0.000000E+00	4.331000E+02
-9.047159E-03	0.000000E+00	4.335400E+02
7.887955E-03	0.000000E+00	4.339900E+02
1.642460E-02	0.000000E+00	4.344300E+02
7.772802E-03	0.000000E+00	4.348800E+02
7.388960E-03	0.000000E+00	4.353100E+02
4.295193E-03	0.000000E+00	4.357500E+02
3.262652E-04	0.000000E+00	4.362000E+02
1.124656E-03	0.000000E+00	4.366400E+02
1.151463E-05	0.000000E+00	4.370900E+02
3.458417E-03	0.000000E+00	4.375300E+02
9.557660E-04	0.000000E+00	4.379800E+02
-1.496600E-02	0.000000E+00	4.384100E+02
-1.233285E-02	0.000000E+00	4.388600E+02
-6.099252E-03	0.000000E+00	4.393000E+02
-2.081576E-02	0.000000E+00	4.397400E+02
-1.432883E-02	0.000000E+00	4.406200E+02
-1.771431E-02	0.000000E+00	4.410600E+02
-1.588723E-02	0.000000E+00	4.415000E+02
-9.707367E-03	0.000000E+00	4.419500E+02
5.719240E-04	0.000000E+00	4.423900E+02
-1.751471E-02	0.000000E+00	4.428300E+02
-1.322336E-02	0.000000E+00	4.432800E+02
9.338877E-03	0.000000E+00	4.437100E+02
2.898392E-02	0.000000E+00	4.441600E+02
9.692012E-03	0.000000E+00	4.446000E+02
6.103084E-04	0.000000E+00	4.450500E+02
2.874976E-03	0.000000E+00	4.454900E+02
2.944068E-03	0.000000E+00	4.459400E+02
-8.563519E-03	0.000000E+00	4.463800E+02
-4.533176E-03	0.000000E+00	4.468100E+02
-5.446720E-03	0.000000E+00	4.472600E+02
-1.726138E-02	0.000000E+00	4.477000E+02
-1.154981E-02	0.000000E+00	4.481500E+02
-1.358417E-02	0.000000E+00	4.485900E+02
-1.438256E-02	0.000000E+00	4.490400E+02
-1.472035E-02	0.000000E+00	4.494800E+02
-1.313124E-02	0.000000E+00	4.499300E+02
-1.234820E-02	0.000000E+00	4.508000E+02
-1.447469E-02	0.000000E+00	4.512500E+02
1.256315E-02	0.000000E+00	4.516900E+02
-9.415647E-03	0.000000E+00	4.521400E+02
-1.612521E-02	0.000000E+00	4.525800E+02
-3.581248E-03	0.000000E+00	4.530300E+02
3.084939E-02	0.000000E+00	4.534700E+02
2.066990E-02	0.000000E+00	4.539100E+02
-4.034181E-03	0.000000E+00	4.543500E+02
1.117364E-02	0.000000E+00	4.547900E+02
7.243100E-03	0.000000E+00	4.552400E+02
-1.480479E-02	0.000000E+00	4.556800E+02
-2.982454E-03	0.000000E+00	4.561300E+02
3.416188E-04	0.000000E+00	4.565700E+02
-2.230123E-03	0.000000E+00	4.570100E+02
-1.349973E-02	0.000000E+00	4.574500E+02
-1.295467E-02	0.000000E+00	4.579000E+02
-1.635551E-02	0.000000E+00	4.583400E+02
-1.376842E-02	0.000000E+00	4.587800E+02
-1.430580E-02	0.000000E+00	4.592300E+02
-1.181082E-02	0.000000E+00	4.596700E+02
-8.970391E-03	0.000000E+00	4.605500E+02
-1.518096E-02	0.000000E+00	4.610000E+02
-1.136557E-02	0.000000E+00	4.614400E+02
9.546152E-03	0.000000E+00	4.618900E+02
-1.453610E-02	0.000000E+00	4.623300E+02
-1.426741E-02	0.000000E+00	4.627700E+02
1.595632E-02	0.000000E+00	4.632200E+02
1.525005E-02	0.000000E+00	4.636500E+02
-1.415226E-02	0.000000E+00	4.641100E+02
-1.462439E-03	0.000000E+00	4.645400E+02
3.734783E-03	0.000000E+00	4.649900E+02
-3.251143E-03	0.000000E+00	4.654300E+02
-1.623653E-03	0.000000E+00	4.658800E+02
-2.099617E-03	0.000000E+00	4.663200E+02
-1.569530E-02	0.000000E+00	4.667600E+02
-5.385306E-03	0.000000E+00	4.672100E+02
-8.624933E-03	0.000000E+00	4.676400E+02
-9.039482E-03	0.000000E+00	4.680900E+02
-1.308518E-02	0.000000E+00	4.685300E+02
-9.239080E-03	0.000000E+00	4.689800E+02
-1.413691E-02	0.000000E+00	4.694200E+02
-1.235588E-02	0.000000E+00	4.698600E+02
1.283952E-02	0.000000E+00	4.707400E+02
-1.428277E-02	0.000000E+00	4.711900E+02
-1.351508E-02	0.000000E+00	4.716300E+02
2.729117E-03	0.000000E+00	4.720800E+02
1.894261E-02	0.000000E+00	4.725200E+02
3.120635E-03	0.000000E+00	4.729600E+02
-7.780480E-03	0.000000E+00	4.734000E+02
2.729117E-03	0.000000E+00	4.738400E+02
1.615974E-03	0.000000E+00	4.742900E+02
-7.665328E-03	0.000000E+00	4.747300E+02
-2.099617E-03	0.000000E+00	4.751800E+02
-2.260831E-03	0.000000E+00	4.756200E+02
-1.475105E-02	0.000000E+00	4.760600E+02
-1.225608E-02	0.000000E+00	4.765000E+02
-4.126303E-03	0.000000E+00	4.769600E+02
-1.105849E-02	0.000000E+00	4.773900E+02
-1.175708E-02	0.000000E+00	4.778300E+02
-1.001444E-02	0.000000E+00	4.782800E+02
-1.160355E-02	0.000000E+00	4.787200E+02
-1.052879E-02	0.000000E+00	4.791600E+02
-9.507770E-03	0.000000E+00	4.796000E+02
2.486145E-02	0.000000E+00	4.800500E+02
-1.369933E-02	0.000000E+00	4.809300E+02
3.097605E-03	0.000000E+00	4.813700E+02
2.192122E-02	0.000000E+00	4.818100E+02
-6.129959E-03	0.000000E+00	4.822600E+02
-1.050576E-02	0.000000E+00	4.826900E+02
-1.221770E-02	0.000000E+00	4.831400E+02
-2.445075E-03	0.000000E+00	4.835900E+02
-7.181687E-03	0.000000E+00	4.840400E+02
-2.022848E-03	0.000000E+00	4.844800E+02
-8.294828E-03	0.000000E+00	4.849300E+02
-1.315427E-02	0.000000E+00	4.853600E+02
-5.584904E-03	0.000000E+00	4.858000E+02
-5.623288E-03	0.000000E+00	4.862500E+02
-9.607568E-03	0.000000E+00	4.866900E+02
-1.279346E-02	0.000000E+00	4.871400E+02
-8.993421E-03	0.000000E+00	4.875800E+02
-9.300495E-03	0.000000E+00	4.880300E+02
-1.056717E-02	0.000000E+00	4.884600E+02
-1.022939E-02	0.000000E+00	4.889100E+02
1.420600E-02	0.000000E+00	4.893500E+02
6.751782E-03	0.000000E+00	4.897900E+02
-4.686713E-03	0.000000E+00	4.906700E+02
2.085414E-02	0.000000E+00	4.911200E+02
1.544964E-02	0.000000E+00	4.915500E+02
-1.246335E-02	0.000000E+00	4.920000E+02
-1.020636E-02	0.000000E+00	4.924400E+02
-1.239811E-03	0.000000E+00	4.928900E+02
-1.083586E-02	0.000000E+00	4.933400E+02
-1.230214E-02	0.000000E+00	4.937700E+02
-5.162677E-03	0.000000E+00	4.942200E+02
-1.070536E-02	0.000000E+00	4.946600E+02
-9.315848E-03	0.000000E+00	4.951100E+02
-3.266497E-03	0.000000E+00	4.955500E+02
-1.211022E-02	0.000000E+00	4.960000E+02
-1.204113E-02	0.000000E+00	4.964400E+02
-1.065930E-02	0.000000E+00	4.968900E+02
-1.279346E-02	0.000000E+00	4.973200E+02
-1.102011E-02	0.000000E+00	4.977600E+02
-1.196436E-02	0.000000E+00	4.982100E+02
-1.211790E-02	0.000000E+00	4.986500E+02
2.452750E-03	0.000000E+00	4.991000E+02
-1.171102E-02	0.000000E+00	4.995400E+02
-1.006818E-02	0.000000E+00	4.999900E+02
5.377627E-03	0.000000E+00	5.008700E+02
2.460044E-02	0.000000E+00	5.013100E+02
-3.895998E-03	0.000000E+00	5.017500E+02
6.145312E-03	0.000000E+00	5.022000E+02
-1.551106E-02	0.000000E+00	5.026400E+02
-1.101243E-02	0.000000E+00	5.030900E+02
-8.832208E-03	0.000000E+00	5.035300E+02
-3.872968E-03	0.000000E+00	5.039700E+02
-5.799855E-03	0.000000E+00	5.044100E+02
-8.156646E-03	0.000000E+00	5.048600E+02
-5.108939E-03	0.000000E+00	5.053000E+02
-1.445933E-02	0.000000E+00	5.057400E+02
-1.055950E-02	0.000000E+00	5.061900E+02
-6.897643E-03	0.000000E+00	5.066200E+02
-7.235425E-03	0.000000E+00	5.071000E+02
-1.337690E-02	0.000000E+00	5.075400E+02
-1.131950E-02	0.000000E+00	5.079900E+02
-1.211022E-02	0.000000E+00	5.084300E+02
-3.719431E-03	0.000000E+00	5.088700E+02
-1.092031E-02	0.000000E+00	5.093100E+02
9.016450E-03	0.000000E+00	5.097500E+02
-1.342296E-02	0.000000E+00	5.106300E+02
-8.640287E-03	0.000000E+00	5.110800E+02
3.750137E-03	0.000000E+00	5.115200E+02
7.680680E-03	0.000000E+00	5.119600E+02
-1.529611E-02	0.000000E+00	5.124000E+02
-1.405246E-02	0.000000E+00	5.128400E+02
-6.083898E-03	0.000000E+00	5.132900E+02
1.615975E-03	0.000000E+00	5.137300E+02
-8.517457E-03	0.000000E+00	5.141800E+02
-1.250942E-02	0.000000E+00	5.146200E+02
-3.604278E-03	0.000000E+00	5.150600E+02
-1.230214E-02	0.000000E+00	5.155000E+02
-1.443630E-02	0.000000E+00	5.159500E+02
-1.567995E-02	0.000000E+00	5.163900E+02
-1.239426E-02	0.000000E+00	5.168300E+02
-1.164193E-02	0.000000E+00	5.172800E+02
-1.153446E-02	0.000000E+00	5.177200E+02
-1.124274E-02	0.000000E+00	5.181600E+02
-8.901299E-03	0.000000E+00	5.186000E+02
1.619430E-02	0.000000E+00	5.190500E+02
-1.430580E-02	0.000000E+00	5.194900E+02
-1.505813E-02	0.000000E+00	5.199400E+02
1.637854E-02	0.000000E+00	5.208100E+02
1.347670E-02	0.000000E+00	5.212600E+02
-7.388962E-03	0.000000E+00	5.217000E+02
-5.224092E-03	0.000000E+00	5.221500E+02
-1.267831E-02	0.000000E+00	5.225900E+02
-9.530800E-03	0.000000E+00	5.230400E+02
-1.033687E-02	0.000000E+00	5.234800E+02
-1.615976E-03	0.000000E+00	5.239200E+02
-9.738075E-03	0.000000E+00	5.243600E+02
-1.098940E-02	0.000000E+00	5.248000E+02
-1.247871E-02	0.000000E+00	5.252500E+02
-1.145769E-02	0.000000E+00	5.256900E+02
-1.058253E-02	0.000000E+00	5.261400E+02
-1.240194E-02	0.000000E+00	5.265700E+02
-1.145001E-02	0.000000E+00	5.270200E+02
-1.205648E-02	0.000000E+00	5.274600E+02
-8.532811E-03	0.000000E+00	5.279100E+02
-1.513489E-02	0.000000E+00	5.283500E+02
-1.715775E-03	0.000000E+00	5.287900E+02
-1.316962E-02	0.000000E+00	5.292400E+02
-1.527308E-02	0.000000E+00	5.296700E+02
1.650516E-04	0.000000E+00	5.305600E+02
-7.949371E-03	0.000000E+00	5.310100E+02
-1.095102E-02	0.000000E+00	5.314500E+02
-1.442095E-02	0.000000E+00	5.319000E+02
-1.389892E-02	0.000000E+00	5.323400E+02
-1.228679E-02	0.000000E+00	5.327800E+02
-2.030525E-03	0.000000E+00	5.332200E+02
-6.229758E-03	0.000000E+00	5.336600E+02
-9.692013E-03	0.000000E+00	5.341100E+02
-1.223305E-02	0.000000E+00	5.345500E+02
-8.087554E-03	0.000000E+00	5.350000E+02
-8.847561E-03	0.000000E+00	5.354400E+02
-1.163425E-02	0.000000E+00	5.358900E+02
-1.203345E-02	0.000000E+00	5.363300E+02
-1.231749E-02	0.000000E+00	5.367600E+02
-3.266497E-03	0.000000E+00	5.372100E+02
-6.582893E-03	0.000000E+00	5.376500E+02
-1.094334E-02	0.000000E+00	5.381000E+02
5.400658E-03	0.000000E+00	5.385400E+02
-1.212557E-02	0.000000E+00	5.389900E+02
-1.090495E-02	0.000000E+00	5.394300E+02
2.277335E-02	0.000000E+00	5.398800E+02
1.149607E-02	0.000000E+00	5.407500E+02
8.694023E-03	0.000000E+00	5.412000E+02
7.588558E-03	0.000000E+00	5.416400E+02
6.928349E-03	0.000000E+00	5.420900E+02
5.968744E-03	0.000000E+00	5.425300E+02
6.966734E-03	0.000000E+00	5.429700E+02
6.682690E-03	0.000000E+00	5.434100E+02
7.097240E-03	0.000000E+00	5.438600E+02
-1.039061E-02	0.000000E+00	5.443000E+02
-8.624933E-03	0.000000E+00	5.447400E+02
-1.677391E-03	0.000000E+00	5.451900E+02
-1.155749E-02	0.000000E+00	5.456300E+02
-5.139647E-03	0.000000E+00	5.460700E+02
-5.208738E-03	0.000000E+00	5.465100E+02
-7.504114E-03	0.000000E+00	5.469600E+02
-4.832573E-03	0.000000E+00	5.474000E+02
-7.273808E-03	0.000000E+00	5.478400E+02
5.761469E-03	0.000000E+00	5.482900E+02
-1.394645E-02	0.000000E+00	5.487700E+02
1.137324E-02	0.000000E+00	5.497200E+02
1.129647E-02	0.000000E+00	5.506000E+02
8.870590E-03	0.000000E+00	5.510500E+02
6.951380E-03	0.000000E+00	5.515000E+02
6.636629E-03	0.000000E+00	5.519500E+02
7.665326E-03	0.000000E+00	5.523900E+02
-3.727108E-03	0.000000E+00	5.528200E+02
-1.478176E-02	0.000000E+00	5.532700E+02
-1.507348E-02	0.000000E+00	5.537100E+02
-1.050576E-02	0.000000E+00	5.541600E+02
-9.139281E-03	0.000000E+00	5.546000E+02
-6.889967E-03	0.000000E+00	5.550500E+02
-4.893987E-03	0.000000E+00	5.557000E+02
-1.513489E-02	0.000000E+00	5.561500E+02
-5.538843E-03	0.000000E+00	5.565900E+02
1.439407E-03	0.000000E+00	5.570400E+02
-1.750349E-02	0.000000E+00	5.575200E+02
1.207183E-02	0.000000E+00	5.584600E+02
8.740083E-03	0.000000E+00	5.589100E+02
6.836227E-03	0.000000E+00	5.593500E+02
5.692378E-03	0.000000E+00	5.597900E+02
5.400658E-03	0.000000E+00	5.606800E+02
5.469749E-03	0.000000E+00	5.611200E+02
5.216413E-03	0.000000E+00	5.615600E+02
5.270151E-03	0.000000E+00	5.620100E+02
4.686712E-03	0.000000E+00	5.624500E+02
-1.017565E-02	0.000000E+00	5.629000E+02
-1.794462E-02	0.000000E+00	5.633400E+02
-1.191062E-02	0.000000E+00	5.637700E+02
-1.082819E-02	0.000000E+00	5.643200E+02
-1.503183E-02	0.000000E+00	5.647900E+02
-6.060868E-03	0.000000E+00	5.659900E+02
-1.189527E-02	0.000000E+00	5.664400E+02
-9.338879E-03	0.000000E+00	5.668900E+02
1.500822E-03	0.000000E+00	5.673300E+02
-1.897332E-02	0.000000E+00	5.677700E+02
1.369165E-02	0.000000E+00	5.685400E+02
8.594224E-03	0.000000E+00	5.689900E+02
4.087918E-03	0.000000E+00	5.694300E+02
2.544872E-03	0.000000E+00	5.698700E+02
2.222445E-03	0.000000E+00	5.707500E+02
2.053555E-03	0.000000E+00	5.712000E+02
1.278194E-03	0.000000E+00	5.716400E+02
1.270517E-03	0.000000E+00	5.721000E+02
2.775178E-03	0.000000E+00	5.725400E+02
-1.931877E-02	0.000000E+00	5.729900E+02
-1.316195E-02	0.000000E+00	5.734200E+02
-1.014495E-02	0.000000E+00	5.738700E+02
-1.790624E-02	0.000000E+00	5.743100E+02
-2.249209E-02	0.000000E+00	5.747800E+02
-9.538477E-03	0.000000E+00	5.758900E+02
-1.921898E-02	0.000000E+00	5.763400E+02
-5.454397E-03	0.000000E+00	5.768700E+02
-6.828552E-03	0.000000E+00	5.773200E+02
-2.154718E-02	0.000000E+00	5.777900E+02
2.222062E-02	0.000000E+00	5.784300E+02
6.936026E-03	0.000000E+00	5.788800E+02
1.232133E-03	0.000000E+00	5.793100E+02
-9.634444E-04	0.000000E+00	5.797500E+02
-2.299215E-03	0.000000E+00	5.806400E+02
-8.559685E-04	0.000000E+00	5.810900E+02
-5.796022E-04	0.000000E+00	5.815300E+02
-9.853227E-03	0.000000E+00	5.819800E+02
-1.921898E-02	0.000000E+00	5.824100E+02
-1.689289E-02	0.000000E+00	5.828600E+02
-2.103071E-02	0.000000E+00	5.833000E+02
-1.643228E-02	0.000000E+00	5.837400E+02
-2.103071E-02	0.000000E+00	5.841900E+02
-1.700037E-02	0.000000E+00	5.849000E+02
-1.534217E-02	0.000000E+00	5.854700E+02
-1.851441E-02	0.000000E+00	5.859500E+02
-1.415994E-02	0.000000E+00	5.868800E+02
3.481447E-03	0.000000E+00	5.877000E+02
-1.147688E-03	0.000000E+00	5.881500E+02
-4.617621E-03	0.000000E+00	5.885900E+02
-6.129959E-03	0.000000E+00	5.890400E+02
-5.799855E-03	0.000000E+00	5.894800E+02
-6.329557E-03	0.000000E+00	5.899200E+02
-6.997442E-03	0.000000E+00	5.908100E+02
-6.889966E-03	0.000000E+00	5.912600E+02
-6.582893E-03	0.000000E+00	5.917000E+02
-1.568763E-02	0.000000E+00	5.921500E+02
-4.494791E-03	0.000000E+00	5.928100E+02
-2.037050E-02	0.000000E+00	5.932600E+02
-1.981165E-02	0.000000E+00	5.937300E+02
-1.303912E-02	0.000000E+00	5.949400E+02
-1.449772E-02	0.000000E+00	5.953900E+02
-2.202870E-02	0.000000E+00	5.960900E+02
6.344909E-03	0.000000E+00	5.965400E+02
-6.866936E-03	0.000000E+00	5.969900E+02
3.109116E-04	0.000000E+00	5.974300E+02
-6.905320E-03	0.000000E+00	5.978800E+02
-8.440688E-03	0.000000E+00	5.983100E+02
-8.962713E-03	0.000000E+00	5.987500E+02
-9.100897E-03	0.000000E+00	5.992100E+02
-9.607568E-03	0.000000E+00	5.996500E+02
-9.745752E-03	0.000000E+00	6.005300E+02
-9.622922E-03	0.000000E+00	6.009700E+02
-9.945350E-03	0.000000E+00	6.014100E+02
-1.644764E-02	0.000000E+00	6.018600E+02
-1.815957E-02	0.000000E+00	6.025800E+02
-2.202386E-02	0.000000E+00	6.030700E+02
-2.023232E-02	0.000000E+00	6.040900E+02
-1.536520E-02	0.000000E+00	6.045200E+02
-4.870957E-03	0.000000E+00	6.049700E+02
-1.961049E-02	0.000000E+00	6.058200E+02
-1.924968E-02	0.000000E+00	6.062700E+02
-2.101601E-02	0.000000E+00	6.067400E+02
-3.582370E-03	0.000000E+00	6.071900E+02
-1.241356E-02	0.000000E+00	6.076300E+02
-1.149607E-02	0.000000E+00	6.082300E+02
-1.187991E-02	0.000000E+00	6.086700E+02
-1.213325E-02	0.000000E+00	6.091200E+02
-1.240962E-02	0.000000E+00	6.095600E+02
-1.245568E-02	0.000000E+00	6.100100E+02
-1.269366E-02	0.000000E+00	6.108900E+02
-1.509651E-02	0.000000E+00	6.113300E+02
-2.846189E-02	0.000000E+00	6.117600E+02
-1.405246E-02	0.000000E+00	6.122100E+02
-1.703875E-02	0.000000E+00	6.126500E+02
-2.336408E-02	0.000000E+00	6.131500E+02
-2.148117E-02	0.000000E+00	6.140300E+02
-1.041364E-02	0.000000E+00	6.145700E+02
-1.921898E-02	0.000000E+00	6.150200E+02
-1.505813E-02	0.000000E+00	6.154600E+02
-1.604076E-02	0.000000E+00	6.159100E+02
-3.427711E-03	0.000000E+00	6.167400E+02
-1.412923E-02	0.000000E+00	6.175500E+02
-1.428277E-02	0.000000E+00	6.181000E+02
-1.458984E-02	0.000000E+00	6.185400E+02
-1.486620E-02	0.000000E+00	6.189800E+02
-1.502742E-02	0.000000E+00	6.194200E+02
-1.518096E-02	0.000000E+00	6.198700E+02
-1.482782E-02	0.000000E+00	6.207400E+02
-1.488924E-02	0.000000E+00	6.211900E+02
-2.268891E-02	0.000000E+00	6.216300E+02
-1.403711E-02	0.000000E+00	6.222300E+02
-1.819028E-02	0.000000E+00	6.226600E+02
-2.243299E-02	0.000000E+00	6.231500E+02
-1.310053E-02	0.000000E+00	6.243100E+02
-1.653976E-02	0.000000E+00	6.247500E+02
-1.883834E-02	0.000000E+00	6.255800E+02
-4.310548E-03	0.000000E+00	6.260700E+02
-9.216050E-03	0.000000E+00	6.265100E+02
-1.174173E-02	0.000000E+00	6.269600E+02
-1.467428E-02	0.000000E+00	6.274000E+02
-1.597935E-02	0.000000E+00	6.278400E+02
-1.607915E-02	0.000000E+00	6.282900E+02
-1.605611E-02	0.000000E+00	6.287300E+02
-1.589490E-02	0.000000E+00	6.291800E+02
-1.581046E-02	0.000000E+00	6.296100E+02
-1.590258E-02	0.000000E+00	6.300600E+02
-1.115829E-02	0.000000E+00	6.309500E+02
-1.273972E-02	0.000000E+00	6.318000E+02
-1.564924E-02	0.000000E+00	6.322500E+02
-1.732280E-02	0.000000E+00	6.329600E+02
-1.705411E-02	0.000000E+00	6.335300E+02
-1.469732E-02	0.000000E+00	6.342400E+02
-1.768694E-02	0.000000E+00	6.347700E+02
-1.727014E-02	0.000000E+00	6.356500E+02
-5.607934E-03	0.000000E+00	6.364300E+02
-1.185688E-02	0.000000E+00	6.368800E+02
-1.612521E-02	0.000000E+00	6.373200E+02
-1.734583E-02	0.000000E+00	6.377600E+02
-1.744562E-02	0.000000E+00	6.382100E+02
-1.733047E-02	0.000000E+00	6.386500E+02
-1.715390E-02	0.000000E+00	6.391000E+02
-1.713855E-02	0.000000E+00	6.395300E+02
-1.711552E-02	0.000000E+00	6.399800E+02
-1.348437E-02	0.000000E+00	6.408700E+02
-2.204405E-02	0.000000E+00	6.413100E+02
-1.701146E-02	0.000000E+00	6.417800E+02
-1.996594E-02	0.000000E+00	6.426600E+02
-1.865412E-02	0.000000E+00	6.431200E+02
-1.634016E-02	0.000000E+00	6.438600E+02
-1.781744E-02	0.000000E+00	6.443500E+02
-2.019084E-02	0.000000E+00	6.447900E+02
-9.822519E-03	0.000000E+00	6.453300E+02
-1.810145E-02	0.000000E+00	6.458000E+02
5.009139E-03	0.000000E+00	6.463300E+02
-7.427345E-03	0.000000E+00	6.467700E+02
-1.362256E-02	0.000000E+00	6.472200E+02
-1.527308E-02	0.000000E+00	6.476600E+02
-1.571834E-02	0.000000E+00	6.481100E+02
-1.574904E-02	0.000000E+00	6.485500E+02
-1.552641E-02	0.000000E+00	6.490000E+02
-1.515025E-02	0.000000E+00	6.494400E+02
-1.505045E-02	0.000000E+00	6.498800E+02
-1.757613E-02	0.000000E+00	6.507600E+02
-1.216486E-02	0.000000E+00	6.512500E+02
-1.708515E-02	0.000000E+00	6.521400E+02
-1.230982E-02	0.000000E+00	6.526100E+02
-1.106617E-02	0.000000E+00	6.535100E+02
-1.601006E-02	0.000000E+00	6.540100E+02
-1.494202E-02	0.000000E+00	6.544900E+02
-8.413618E-03	0.000000E+00	6.549400E+02
-7.588559E-03	0.000000E+00	6.560700E+02
-1.136556E-02	0.000000E+00	6.566200E+02
-1.449772E-02	0.000000E+00	6.572900E+02
-1.280114E-02	0.000000E+00	6.578200E+02
-1.292396E-02	0.000000E+00	6.582700E+02
-1.248639E-02	0.000000E+00	6.587100E+02
-1.230982E-02	0.000000E+00	6.591600E+02
-1.194900E-02	0.000000E+00	6.595900E+02
-8.095231E-03	0.000000E+00	6.600400E+02
-1.123506E-02	0.000000E+00	6.611500E+02
-1.349434E-02	0.000000E+00	6.616300E+02
-7.896258E-03	0.000000E+00	6.625200E+02
-1.318806E-02	0.000000E+00	6.629700E+02
-3.473772E-03	0.000000E+00	6.634300E+02
-1.371617E-02	0.000000E+00	6.639200E+02
-4.732774E-03	0.000000E+00	6.645300E+02
-2.629319E-03	0.000000E+00	6.649800E+02
-6.467740E-03	0.000000E+00	6.654100E+02
-2.091940E-03	0.000000E+00	6.658600E+02
-8.770793E-03	0.000000E+00	6.663100E+02
-1.081283E-02	0.000000E+00	6.667400E+02
-1.128112E-02	0.000000E+00	6.672200E+02
-1.013727E-02	0.000000E+00	6.676600E+02
-1.012959E-02	0.000000E+00	6.681100E+02
-9.853227E-03	0.000000E+00	6.685500E+02
-9.446355E-03	0.000000E+00	6.690000E+02
-9.054836E-03	0.000000E+00	6.694400E+02
-1.181082E-02	0.000000E+00	6.698900E+02
-3.008209E-03	0.000000E+00	6.708000E+02
-1.232836E-02	0.000000E+00	6.718100E+02
-1.446151E-02	0.000000E+00	6.723100E+02
-1.027964E-02	0.000000E+00	6.727500E+02
-9.966466E-03	0.000000E+00	6.732000E+02
-1.140417E-02	0.000000E+00	6.737300E+02
-1.229689E-03	0.000000E+00	6.742800E+02
-8.719890E-03	0.000000E+00	6.747200E+02
1.926665E-04	0.000000E+00	6.751700E+02
-7.055742E-03	0.000000E+00	6.756100E+02
-8.596307E-03	0.000000E+00	6.760600E+02
-8.881085E-03	0.000000E+00	6.765000E+02
-8.793579E-03	0.000000E+00	6.769500E+02
-8.960915E-03	0.000000E+00	6.773900E+02
-8.668461E-03	0.000000E+00	6.778300E+02
-9.740024E-03	0.000000E+00	6.784200E+02
-8.257797E-03	0.000000E+00	6.789300E+02
-1.090984E-02	0.000000E+00	6.793700E+02
-9.283305E-03	0.000000E+00	6.798100E+02
-1.229689E-02	0.000000E+00	6.806900E+02
-1.295472E-02	0.000000E+00	6.811400E+02
-8.194086E-03	0.000000E+00	6.815700E+02
-1.083692E-02	0.000000E+00	6.820200E+02
-1.093057E-02	0.000000E+00	6.824600E+02
-1.291019E-02	0.000000E+00	6.829100E+02
-1.174268E-02	0.000000E+00	6.833500E+02
5.719240E-04	0.000000E+00	6.839400E+02
-5.035429E-03	0.000000E+00	6.849500E+02
-7.938477E-03	0.000000E+00	6.854500E+02
-8.062827E-03	0.000000E+00	6.859000E+02
-8.286198E-03	0.000000E+00	6.863400E+02
-8.233233E-03	0.000000E+00	6.867800E+02
-8.028286E-03	0.000000E+00	6.872300E+02
-7.402695E-03	0.000000E+00	6.876600E+02
-7.373526E-03	0.000000E+00	6.881100E+02
-7.644488E-03	0.000000E+00	6.885500E+02
-8.141122E-03	0.000000E+00	6.890000E+02
-8.167988E-03	0.000000E+00	6.894400E+02
-5.677139E-03	0.000000E+00	6.898900E+02
-9.874353E-03	0.000000E+00	6.907600E+02
-8.928675E-03	0.000000E+00	6.912100E+02
-1.116008E-02	0.000000E+00	6.916500E+02
-1.045159E-02	0.000000E+00	6.920900E+02
-1.082540E-02	0.000000E+00	6.925300E+02
-1.228307E-02	0.000000E+00	6.929800E+02
-5.330954E-03	0.000000E+00	6.934200E+02
-3.608468E-03	0.000000E+00	6.938700E+02
-5.641830E-03	0.000000E+00	6.943100E+02
-3.777339E-03	0.000000E+00	6.947500E+02
-7.307513E-03	0.000000E+00	6.951900E+02
-7.794169E-03	0.000000E+00	6.956300E+02
-7.682867E-03	0.000000E+00	6.960800E+02
-7.220774E-03	0.000000E+00	6.965200E+02
-8.750593E-03	0.000000E+00	6.970900E+02
-7.220774E-03	0.000000E+00	6.975800E+02
-7.793401E-03	0.000000E+00	6.982100E+02
-7.207725E-03	0.000000E+00	6.987100E+02
-6.945208E-03	0.000000E+00	6.991600E+02
-3.907831E-03	0.000000E+00	6.996000E+02
-6.974376E-03	0.000000E+00	7.000400E+02
-8.834261E-03	0.000000E+00	7.009300E+02
-1.100042E-02	0.000000E+00	7.013700E+02
-9.033069E-03	0.000000E+00	7.018100E+02
-8.519547E-03	0.000000E+00	7.022600E+02
-9.928852E-03	0.000000E+00	7.026900E+02
-1.021363E-02	0.000000E+00	7.031400E+02
-9.424542E-03	0.000000E+00	7.035800E+02
-1.811526E-03	0.000000E+00	7.040300E+02
-8.230164E-03	0.000000E+00	7.044700E+02
-1.861420E-03	0.000000E+00	7.049200E+02
-6.044817E-03	0.000000E+00	7.053600E+02
-8.113489E-03	0.000000E+00	7.059200E+02
-7.456427E-03	0.000000E+00	7.064300E+02
-7.274507E-03	0.000000E+00	7.068800E+02
-9.732349E-03	0.000000E+00	7.073200E+02
-9.589575E-03	0.000000E+00	7.077600E+02
-5.961069E-03	0.000000E+00	7.084400E+02
-1.106106E-02	0.000000E+00	7.093600E+02
-5.748526E-03	0.000000E+00	7.098000E+02
-2.450166E-03	0.000000E+00	7.106800E+02
-1.127829E-02	0.000000E+00	7.111300E+02
-4.875001E-03	0.000000E+00	7.115700E+02
-1.644958E-03	0.000000E+00	7.120200E+02
-5.180505E-03	0.000000E+00	7.124500E+02
2.004193E-03	0.000000E+00	7.129000E+02
-5.102210E-03	0.000000E+00	7.133400E+02
-6.305032E-03	0.000000E+00	7.137700E+02
-6.649683E-03	0.000000E+00	7.142200E+02
-4.921057E-03	0.000000E+00	7.146600E+02
-3.806508E-03	0.000000E+00	7.151100E+02
-4.066723E-03	0.000000E+00	7.155500E+02
-1.447686E-03	0.000000E+00	7.160000E+02
-3.619215E-03	0.000000E+00	7.164400E+02
-3.652222E-03	0.000000E+00	7.168900E+02
-9.763053E-03	0.000000E+00	7.173200E+02
-7.227683E-03	0.000000E+00	7.180900E+02
-6.548360E-03	0.000000E+00	7.186400E+02
-3.274564E-03	0.000000E+00	7.190900E+02
-8.656946E-03	0.000000E+00	7.195200E+02
-7.426491E-03	0.000000E+00	7.199800E+02
-1.165134E-02	0.000000E+00	7.208600E+02
-2.784070E-03	0.000000E+00	7.213000E+02
-5.364728E-03	0.000000E+00	7.217400E+02
-7.841760E-03	0.000000E+00	7.224900E+02
-7.167043E-03	0.000000E+00	7.230200E+02
-6.790154E-03	0.000000E+00	7.234600E+02
-6.583671E-03	0.000000E+00	7.239200E+02
-6.323455E-03	0.000000E+00	7.243600E+02
-6.386398E-03	0.000000E+00	7.247900E+02
-6.096246E-03	0.000000E+00	7.252400E+02
-5.792278E-03	0.000000E+00	7.256800E+02
-1.199599E-02	0.000000E+00	7.261300E+02
-5.424600E-03	0.000000E+00	7.265600E+02
-9.511281E-03	0.000000E+00	7.270100E+02
-7.606875E-03	0.000000E+00	7.274500E+02
-8.488075E-03	0.000000E+00	7.279000E+02
-8.327648E-03	0.000000E+00	7.283300E+02
-1.425426E-03	0.000000E+00	7.287800E+02
-6.405588E-03	0.000000E+00	7.292300E+02
-1.066344E-02	0.000000E+00	7.296600E+02
-8.891063E-03	0.000000E+00	7.305500E+02
-9.679385E-04	0.000000E+00	7.310000E+02
-3.825698E-03	0.000000E+00	7.314300E+02
-6.642775E-03	0.000000E+00	7.318800E+02
-7.022734E-03	0.000000E+00	7.323200E+02
-6.749470E-03	0.000000E+00	7.327600E+02
-6.754843E-03	0.000000E+00	7.332100E+02
-6.457017E-03	0.000000E+00	7.336500E+02
-6.283540E-03	0.000000E+00	7.341000E+02
-6.137697E-03	0.000000E+00	7.345400E+02
-5.752364E-03	0.000000E+00	7.349900E+02
-5.563535E-03	0.000000E+00	7.354200E+02
-7.328238E-03	0.000000E+00	7.359900E+02
-8.562532E-03	0.000000E+00	7.367800E+02
-9.386161E-03	0.000000E+00	7.373400E+02
-3.615377E-03	0.000000E+00	7.381800E+02
-8.673066E-03	0.000000E+00	7.386800E+02
-6.925250E-03	0.000000E+00	7.391300E+02
-6.699577E-03	0.000000E+00	7.395700E+02
-7.034249E-03	0.000000E+00	7.400200E+02
-3.363605E-03	0.000000E+00	7.409000E+02
-5.659484E-03	0.000000E+00	7.413400E+02
-5.867503E-03	0.000000E+00	7.417800E+02
-5.689420E-03	0.000000E+00	7.422300E+02
-5.413086E-03	0.000000E+00	7.426600E+02
-4.958669E-03	0.000000E+00	7.431100E+02
-4.722250E-03	0.000000E+00	7.435500E+02
-4.458964E-03	0.000000E+00	7.440000E+02
-4.265531E-03	0.000000E+00	7.444400E+02
-3.937767E-03	0.000000E+00	7.448900E+02
-4.740672E-03	0.000000E+00	7.453300E+02
-5.201230E-03	0.000000E+00	7.457700E+02
-3.847190E-03	0.000000E+00	7.462200E+02
-3.714396E-03	0.000000E+00	7.466500E+02
-6.169168E-03	0.000000E+00	7.471300E+02
-5.188948E-03	0.000000E+00	7.475700E+02
-1.243505E-03	0.000000E+00	7.481300E+02
-6.704183E-03	0.000000E+00	7.486200E+02
-4.161905E-03	0.000000E+00	7.492000E+02
-1.220478E-03	0.000000E+00	7.496900E+02
-1.017065E-03	0.000000E+00	7.501400E+02
-2.310464E-03	0.000000E+00	7.509600E+02
-2.332724E-03	0.000000E+00	7.514000E+02
-2.197627E-03	0.000000E+00	7.518400E+02
-1.849139E-03	0.000000E+00	7.522900E+02
-2.089396E-03	0.000000E+00	7.528700E+02
7.921589E-04	0.000000E+00	7.533800E+02
1.456897E-03	0.000000E+00	7.538200E+02
9.832904E-04	0.000000E+00	7.542700E+02
7.652931E-04	0.000000E+00	7.547000E+02
-2.831661E-03	0.000000E+00	7.551500E+02
-3.285310E-04	0.000000E+00	7.555900E+02
-4.630139E-03	0.000000E+00	7.560400E+02
-4.194144E-03	0.000000E+00	7.567500E+02
-3.952351E-03	0.000000E+00	7.572800E+02
-2.914562E-03	0.000000E+00	7.581000E+02
-3.144840E-03	0.000000E+00	7.586300E+02
3.045053E-03	0.000000E+00	7.590800E+02
4.267833E-04	0.000000E+00	7.595200E+02
1.808456E-03	0.000000E+00	7.599700E+02
-2.755669E-04	0.000000E+00	7.608400E+02
-2.433279E-04	0.000000E+00	7.612900E+02
-2.318140E-04	0.000000E+00	7.617300E+02
-1.658007E-04	0.000000E+00	7.621800E+02
-2.794049E-04	0.000000E+00	7.630200E+02
4.582547E-04	0.000000E+00	7.635200E+02
1.068493E-03	0.000000E+00	7.639700E+02
6.678085E-04	0.000000E+00	7.644100E+02
3.983822E-04	0.000000E+00	7.648600E+02
-6.848490E-03	0.000000E+00	7.653000E+02
-5.831426E-03	0.000000E+00	7.657400E+02
-5.232701E-03	0.000000E+00	7.661900E+02
-4.601737E-03	0.000000E+00	7.666300E+02
-4.147321E-03	0.000000E+00	7.670800E+02
-2.149269E-03	0.000000E+00	7.675200E+02
-1.829181E-03	0.000000E+00	7.679700E+02
-1.349434E-03	0.000000E+00	7.684000E+02
1.172887E-03	0.000000E+00	7.691500E+02
-1.765471E-04	0.000000E+00	7.697000E+02
-3.761220E-04	0.000000E+00	7.701500E+02
-1.059282E-04	0.000000E+00	7.710300E+02
-2.287436E-04	0.000000E+00	7.715400E+02
4.897261E-04	0.000000E+00	7.720400E+02
6.701113E-04	0.000000E+00	7.724800E+02
6.816252E-04	0.000000E+00	7.729300E+02
9.395374E-04	0.000000E+00	7.733700E+02
1.099197E-03	0.000000E+00	7.738000E+02
2.633621E-03	0.000000E+00	7.744900E+02
-4.957134E-03	0.000000E+00	7.749900E+02
-4.733764E-03	0.000000E+00	7.754300E+02
-2.582193E-03	0.000000E+00	7.758800E+02
-2.757972E-03	0.000000E+00	7.763200E+02
1.842998E-03	0.000000E+00	7.767600E+02
-7.200050E-04	0.000000E+00	7.772100E+02
-2.916865E-03	0.000000E+00	7.776500E+02
-3.973077E-03	0.000000E+00	7.781000E+02
-4.115849E-03	0.000000E+00	7.785300E+02
2.792514E-03	0.000000E+00	7.789800E+02
-3.630729E-04	0.000000E+00	7.796300E+02
2.425603E-04	0.000000E+00	7.801300E+02
3.262282E-04	0.000000E+00	7.811300E+02
9.602626E-04	0.000000E+00	7.816600E+02
1.023973E-03	0.000000E+00	7.821000E+02
1.362483E-03	0.000000E+00	7.825400E+02
1.278815E-03	0.000000E+00	7.829900E+02
-2.772557E-03	0.000000E+00	7.834300E+02
-8.151869E-04	0.000000E+00	7.838800E+02
-1.459967E-03	0.000000E+00	7.843200E+02
-1.540565E-03	0.000000E+00	7.847600E+02
-1.400862E-03	0.000000E+00	7.854400E+02
6.524565E-04	0.000000E+00	7.860000E+02
-5.608056E-03	0.000000E+00	7.864400E+02
-5.359354E-03	0.000000E+00	7.868900E+02
1.427728E-03	0.000000E+00	7.873300E+02
7.192374E-04	0.000000E+00	7.877700E+02
-7.982997E-04	0.000000E+00	7.882200E+02
1.343292E-04	0.000000E+00	7.888000E+02
6.539917E-04	0.000000E+00	7.893500E+02
8.704538E-04	0.000000E+00	7.897900E+02
1.007086E-03	0.000000E+00	7.907300E+02
8.075109E-04	0.000000E+00	7.912900E+02
8.497287E-04	0.000000E+00	7.919000E+02
9.333966E-04	0.000000E+00	7.924700E+02
1.811526E-03	0.000000E+00	7.929800E+02
8.683045E-03	0.000000E+00	7.934200E+02
2.794049E-04	0.000000E+00	7.938700E+02
-5.059225E-03	0.000000E+00	7.943000E+02
-4.409838E-03	0.000000E+00	7.947400E+02
-3.050426E-03	0.000000E+00	7.951900E+02
1.227386E-03	0.000000E+00	7.958800E+02
9.426077E-04	0.000000E+00	7.964300E+02
-4.650863E-03	0.000000E+00	7.969400E+02
4.981697E-04	0.000000E+00	7.973800E+02
1.286491E-03	0.000000E+00	7.978200E+02
1.595832E-03	0.000000E+00	7.982700E+02
6.539917E-04	0.000000E+00	7.988700E+02
8.827353E-04	0.000000E+00	7.997200E+02
1.269603E-03	0.000000E+00	8.002200E+02
1.560522E-03	0.000000E+00	8.011100E+02
1.599670E-03	0.000000E+00	8.015500E+02
1.333314E-03	0.000000E+00	8.021200E+02
-2.295879E-03	0.000000E+00	8.026500E+02
-1.638050E-03	0.000000E+00	8.031000E+02
-2.699635E-03	0.000000E+00	8.035400E+02
-3.343648E-03	0.000000E+00	8.043400E+02
-3.425780E-03	0.000000E+00	8.048300E+02
4.950993E-04	0.000000E+00	8.052800E+02
-9.740792E-04	0.000000E+00	8.057300E+02
6.140767E-04	0.000000E+00	8.061800E+02
-3.070384E-03	0.000000E+00	8.066100E+02
-6.087036E-04	0.000000E+00	8.070600E+02
-2.273619E-03	0.000000E+00	8.075000E+02
-1.440777E-03	0.000000E+00	8.079500E+02
-1.942018E-03	0.000000E+00	8.083900E+02
-1.138345E-03	0.000000E+00	8.088300E+02
-4.682335E-03	0.000000E+00	8.092800E+02
-2.806331E-03	0.000000E+00	8.097100E+02
-2.300485E-03	0.000000E+00	8.106000E+02
-2.084023E-03	0.000000E+00	8.110500E+02
-5.486007E-03	0.000000E+00	8.114900E+02
-2.713451E-03	0.000000E+00	8.119400E+02
-1.299540E-03	0.000000E+00	8.123800E+02
-1.328708E-03	0.000000E+00	8.128100E+02
-1.765470E-05	0.000000E+00	8.132600E+02
-2.373407E-03	0.000000E+00	8.137000E+02
-1.080775E-03	0.000000E+00	8.141400E+02
-1.675662E-03	0.000000E+00	8.145800E+02
-1.082310E-03	0.000000E+00	8.150300E+02
-2.799422E-03	0.000000E+00	8.155900E+02
-6.977447E-04	0.000000E+00	8.161800E+02
-2.523855E-03	0.000000E+00	8.168500E+02
-2.150804E-03	0.000000E+00	8.174000E+02
-2.839337E-03	0.000000E+00	8.178400E+02
-1.816900E-03	0.000000E+00	8.182900E+02
-2.333492E-03	0.000000E+00	8.187300E+02
-8.574047E-04	0.000000E+00	8.191800E+02
-2.003425E-03	0.000000E+00	8.196200E+02
-2.429441E-03	0.000000E+00	8.200700E+02
-2.195324E-03	0.000000E+00	8.210500E+02
-1.364785E-03	0.000000E+00	8.214900E+02
1.719414E-04	0.000000E+00	8.219400E+02
-1.861420E-03	0.000000E+00	8.223800E+02
-2.638227E-03	0.000000E+00	8.228200E+02
-4.805150E-04	0.000000E+00	8.232700E+02
-2.021848E-03	0.000000E+00	8.237100E+02
-1.896730E-03	0.000000E+00	8.241600E+02
-1.674894E-03	0.000000E+00	8.245900E+02
-2.346541E-03	0.000000E+00	8.252200E+02
-1.951229E-03	0.000000E+00	8.259100E+02
-1.256555E-03	0.000000E+00	8.267100E+02
-1.781590E-03	0.000000E+00	8.272400E+02
-2.226028E-03	0.000000E+00	8.276800E+02
-1.922060E-03	0.000000E+00	8.284300E+02
-2.073277E-03	0.000000E+00	8.289300E+02
-1.552847E-03	0.000000E+00	8.297300E+02
-2.118565E-03	0.000000E+00	8.302400E+02
-1.462270E-03	0.000000E+00	8.311200E+02
-2.156945E-03	0.000000E+00	8.315600E+02
-8.957845E-04	0.000000E+00	8.320100E+02
-2.790211E-03	0.000000E+00	8.324500E+02
-1.759330E-03	0.000000E+00	8.330200E+02
-1.918222E-03	0.000000E+00	8.335600E+02
-2.275154E-03	0.000000E+00	8.340000E+02
-2.050249E-03	0.000000E+00	8.344400E+02
-1.281885E-03	0.000000E+00	8.349900E+02
-8.604749E-04	0.000000E+00	8.358800E+02
-1.944321E-03	0.000000E+00	8.363800E+02
-7.169346E-04	0.000000E+00	8.368200E+02
-5.127541E-04	0.000000E+00	8.372700E+02
-3.715164E-04	0.000000E+00	8.377100E+02
-1.101500E-03	0.000000E+00	8.381500E+02
-8.543342E-04	0.000000E+00	8.385900E+02
-1.368623E-03	0.000000E+00	8.390400E+02
-3.124115E-03	0.000000E+00	8.394800E+02
-7.553144E-04	0.000000E+00	8.399300E+02
-2.686586E-04	0.000000E+00	8.410000E+02
-2.186113E-03	0.000000E+00	8.415400E+02
-2.632854E-04	0.000000E+00	8.419900E+02
-1.831484E-03	0.000000E+00	8.425700E+02
-9.978747E-04	0.000000E+00	8.431200E+02
-1.367856E-03	0.000000E+00	8.435600E+02
-2.151571E-03	0.000000E+00	8.440000E+02
-2.199930E-03	0.000000E+00	8.446600E+02
-1.216640E-03	0.000000E+00	8.451900E+02
-2.132381E-03	0.000000E+00	8.456300E+02
-1.588924E-04	0.000000E+00	8.460800E+02
4.137342E-04	0.000000E+00	8.465700E+02
-2.130846E-03	0.000000E+00	8.470900E+02
-5.849081E-04	0.000000E+00	8.475300E+02
-1.247343E-03	0.000000E+00	8.479800E+02
-1.512164E-03	0.000000E+00	8.484200E+02
-5.764645E-04	0.000000E+00	8.488600E+02
-2.251359E-03	0.000000E+00	8.493000E+02
-1.579712E-03	0.000000E+00	8.497400E+02
-1.462270E-03	0.000000E+00	8.506200E+02
-1.491439E-03	0.000000E+00	8.510700E+02
-1.367088E-03	0.000000E+00	8.515100E+02
-1.192076E-03	0.000000E+00	8.519600E+02
-1.270371E-03	0.000000E+00	8.523900E+02
-6.754844E-04	0.000000E+00	8.528300E+02
-1.206661E-03	0.000000E+00	8.532800E+02
-9.287911E-04	0.000000E+00	8.537200E+02
-7.146318E-04	0.000000E+00	8.541700E+02
-3.308338E-04	0.000000E+00	8.546100E+02
-6.064008E-04	0.000000E+00	8.550500E+02
4.206426E-04	0.000000E+00	8.555400E+02
-1.154464E-03	0.000000E+00	8.560400E+02
-1.019367E-03	0.000000E+00	8.564800E+02
-1.042395E-03	0.000000E+00	8.569300E+02
2.582960E-03	0.000000E+00	8.577300E+02
-4.029878E-04	0.000000E+00	8.582400E+02
-7.000475E-04	0.000000E+00	8.586800E+02
-6.662732E-04	0.000000E+00	8.591300E+02
-3.623053E-04	0.000000E+00	8.599100E+02
-5.925840E-04	0.000000E+00	8.604400E+02
-1.152929E-03	0.000000E+00	8.613800E+02
7.269133E-04	0.000000E+00	8.618200E+02
7.123290E-04	0.000000E+00	8.622700E+02
-1.172119E-03	0.000000E+00	8.627000E+02
-4.897262E-04	0.000000E+00	8.634400E+02
2.479334E-04	0.000000E+00	8.639500E+02
-1.205126E-04	0.000000E+00	8.643800E+02
-1.239667E-03	0.000000E+00	8.648200E+02
-1.042395E-03	0.000000E+00	8.652700E+02
-2.011101E-04	0.000000E+00	8.657100E+02
2.187648E-04	0.000000E+00	8.661600E+02
-2.510039E-04	0.000000E+00	8.668400E+02
2.771021E-04	0.000000E+00	8.673400E+02
5.603450E-04	0.000000E+00	8.677800E+02
-4.459732E-04	0.000000E+00	8.683000E+02
6.908348E-06	0.000000E+00	8.688000E+02
1.276512E-03	0.000000E+00	8.692400E+02
3.469533E-04	0.000000E+00	8.696900E+02
-2.571446E-04	0.000000E+00	8.707400E+02
-8.796649E-04	0.000000E+00	8.713100E+02
-1.386278E-03	0.000000E+00	8.718000E+02
-3.907064E-04	0.000000E+00	8.723900E+02
-4.897262E-04	0.000000E+00	8.728800E+02
-5.104513E-04	0.000000E+00	8.736700E+02
-3.553969E-04	0.000000E+00	8.742100E+02
-5.449929E-05	0.000000E+00	8.746500E+02
-7.038854E-04	0.000000E+00	8.751000E+02
-2.962920E-04	0.000000E+00	8.755400E+02
5.350143E-04	0.000000E+00	8.759900E+02
-5.081485E-04	0.000000E+00	8.767900E+02
-9.003900E-04	0.000000E+00	8.773000E+02
2.302783E-06	0.000000E+00	8.777400E+02
-1.034719E-03	0.000000E+00	8.781900E+02
-1.430799E-03	0.000000E+00	8.786300E+02
5.910488E-05	0.000000E+00	8.790800E+02
-5.242680E-04	0.000000E+00	8.795100E+02
-7.936942E-04	0.000000E+00	8.799600E+02
1.304913E-04	0.000000E+00	8.811800E+02
-4.060582E-04	0.000000E+00	8.819000E+02
-8.443555E-04	0.000000E+00	8.824000E+02
-4.014527E-04	0.000000E+00	8.828400E+02
-9.594950E-04	0.000000E+00	8.835100E+02
-2.586798E-04	0.000000E+00	8.840600E+02
3.930091E-04	0.000000E+00	8.848900E+02
-8.144193E-04	0.000000E+00	8.853900E+02
-2.671234E-04	0.000000E+00	8.858300E+02
-7.184697E-04	0.000000E+00	8.863200E+02
-5.204300E-04	0.000000E+00	8.871100E+02
-1.519840E-04	0.000000E+00	8.878600E+02
-5.979572E-04	0.000000E+00	8.884100E+02
-4.267834E-04	0.000000E+00	8.890100E+02
-8.243980E-04	0.000000E+00	8.898600E+02
-1.849906E-04	0.000000E+00	8.904000E+02
-6.232879E-04	0.000000E+00	8.912800E+02
-1.106106E-03	0.000000E+00	8.917200E+02
-1.757795E-04	0.000000E+00	8.921700E+02
-6.708788E-04	0.000000E+00	8.926100E+02
-3.500237E-04	0.000000E+00	8.930600E+02
-3.976147E-04	0.000000E+00	8.935000E+02
-2.625178E-04	0.000000E+00	8.941900E+02
-2.548418E-04	0.000000E+00	8.947600E+02
-8.174896E-04	0.000000E+00	8.953000E+02
-8.167220E-04	0.000000E+00	8.957400E+02
-6.248231E-04	0.000000E+00	8.961900E+02
-6.562945E-04	0.000000E+00	8.966200E+02
-2.548418E-04	0.000000E+00	8.970700E+02
-6.209851E-04	0.000000E+00	8.975100E+02
-6.555269E-04	0.000000E+00	8.979600E+02
-3.116439E-04	0.000000E+00	8.984000E+02
6.777872E-04	0.000000E+00	8.988400E+02
-7.867858E-04	0.000000E+00	8.992900E+02
-1.343293E-04	0.000000E+00	9.000000E+02
-1.097662E-04	0.000000E+00	9.010000E+02
-3.715164E-04	0.000000E+00	9.015000E+02
-1.918990E-04	0.000000E+00	9.021700E+02
-7.491736E-04	0.000000E+00	9.027200E+02
-5.588098E-04	0.000000E+00	9.033900E+02
-1.450756E-04	0.000000E+00	9.038800E+02
-8.075110E-04	0.000000E+00	9.043200E+02
-5.104513E-04	0.000000E+00	9.047600E+02
3.147142E-05	0.000000E+00	9.053000E+02
-3.523265E-04	0.000000E+00	9.058400E+02
-4.528816E-04	0.000000E+00	9.062900E+02
-2.747994E-04	0.000000E+00	9.070100E+02
-1.274209E-04	0.000000E+00	9.075700E+02
-3.653757E-04	0.000000E+00	9.083500E+02
5.142891E-05	0.000000E+00	9.092400E+02
-3.868684E-04	0.000000E+00	9.098500E+02
-5.595774E-04	0.000000E+00	9.107900E+02
-3.507913E-04	0.000000E+00	9.112400E+02
-4.145018E-04	0.000000E+00	9.116900E+02
-2.502363E-04	0.000000E+00	9.123400E+02
-3.385098E-04	0.000000E+00	9.129900E+02
-5.833729E-04	0.000000E+00	9.134900E+02
-2.632854E-04	0.000000E+00	9.139400E+02
-2.310464E-04	0.000000E+00	9.143800E+02
-2.379548E-04	0.000000E+00	9.150300E+02
-5.296414E-05	0.000000E+00	9.155400E+02
5.833726E-05	0.000000E+00	9.163700E+02
-5.526692E-05	0.000000E+00	9.169300E+02
-3.308339E-04	0.000000E+00	9.174400E+02
-3.131791E-04	0.000000E+00	9.178800E+02
-8.213278E-05	0.000000E+00	9.184000E+02
6.340342E-04	0.000000E+00	9.188900E+02
3.308338E-04	0.000000E+00	9.193400E+02
-9.994098E-04	0.000000E+00	9.197800E+02
2.379547E-04	0.000000E+00	9.205000E+02
-1.362483E-03	0.000000E+00	9.209500E+02
7.046530E-04	0.000000E+00	9.213900E+02
9.502837E-04	0.000000E+00	9.221400E+02
2.256732E-04	0.000000E+00	9.226400E+02
5.603450E-05	0.000000E+00	9.230900E+02
-2.210676E-04	0.000000E+00	9.235300E+02
4.682335E-04	0.000000E+00	9.239800E+02
4.820502E-04	0.000000E+00	9.244200E+02
-1.304913E-04	0.000000E+00	9.248700E+02
1.389348E-04	0.000000E+00	9.255000E+02
8.719889E-04	0.000000E+00	9.260100E+02
3.715164E-04	0.000000E+00	9.264500E+02
-9.103687E-04	0.000000E+00	9.269000E+02
5.756970E-05	0.000000E+00	9.273400E+02
2.256732E-04	0.000000E+00	9.279000E+02
3.837980E-05	0.000000E+00	9.284700E+02
6.064007E-04	0.000000E+00	9.290000E+02
5.987248E-04	0.000000E+00	9.294400E+02
-2.049481E-04	0.000000E+00	9.298900E+02
-1.595064E-03	0.000000E+00	9.308500E+02
3.292987E-04	0.000000E+00	9.313000E+02
6.309638E-04	0.000000E+00	9.317400E+02
8.773621E-04	0.000000E+00	9.323000E+02
9.103687E-04	0.000000E+00	9.327900E+02
1.043163E-03	0.000000E+00	9.332400E+02
1.169816E-03	0.000000E+00	9.337400E+02
1.181330E-03	0.000000E+00	9.342400E+02
1.208964E-03	0.000000E+00	9.346800E+02
1.202055E-03	0.000000E+00	9.353000E+02
1.244273E-03	0.000000E+00	9.357900E+02
1.104571E-03	0.000000E+00	9.364300E+02
9.395374E-04	0.000000E+00	9.369500E+02
7.269133E-04	0.000000E+00	9.373900E+02
-7.008151E-04	0.000000E+00	9.380300E+02
5.142893E-04	0.000000E+00	9.387900E+02
2.855457E-04	0.000000E+00	9.392900E+02
8.420527E-04	0.000000E+00	9.397300E+02
4.613251E-04	0.000000E+00	9.406700E+02
1.166746E-03	0.000000E+00	9.415100E+02
1.205126E-03	0.000000E+00	9.420500E+02
1.204358E-03	0.000000E+00	9.424900E+02
1.303378E-03	0.000000E+00	9.429400E+02
1.465340E-03	0.000000E+00	9.436600E+02
1.337920E-03	0.000000E+00	9.441600E+02
1.407003E-03	0.000000E+00	9.446000E+02
1.466876E-03	0.000000E+00	9.453200E+02
1.437707E-03	0.000000E+00	9.458100E+02
1.413912E-03	0.000000E+00	9.462600E+02
1.397024E-04	0.000000E+00	9.468500E+02
2.118565E-04	0.000000E+00	9.475500E+02
8.305387E-04	0.000000E+00	9.483000E+02
1.549776E-03	0.000000E+00	9.488700E+02
5.526690E-04	0.000000E+00	9.496100E+02
1.731696E-03	0.000000E+00	9.501100E+02
1.354807E-03	0.000000E+00	9.510100E+02
1.476854E-03	0.000000E+00	9.514500E+02
1.572804E-03	0.000000E+00	9.522800E+02
1.549776E-03	0.000000E+00	9.531900E+02
1.585085E-03	0.000000E+00	9.536900E+02
1.585085E-03	0.000000E+00	9.542000E+02
1.625768E-03	0.000000E+00	9.546900E+02
1.729393E-03	0.000000E+00	9.554900E+02
1.714809E-03	0.000000E+00	9.562300E+02
8.873408E-04	0.000000E+00	9.567800E+02
2.149268E-04	0.000000E+00	9.576700E+02
9.971070E-04	0.000000E+00	9.582200E+02
4.605575E-04	0.000000E+00	9.587100E+02
5.089160E-04	0.000000E+00	9.592700E+02
2.424068E-03	0.000000E+00	9.597100E+02
1.930504E-03	0.000000E+00	9.606100E+02
1.583550E-03	0.000000E+00	9.610600E+02
1.430031E-03	0.000000E+00	9.615000E+02
1.492974E-03	0.000000E+00	9.619500E+02
1.626536E-03	0.000000E+00	9.623900E+02
1.759330E-03	0.000000E+00	9.632200E+02
1.687943E-03	0.000000E+00	9.637700E+02
1.715577E-03	0.000000E+00	9.645700E+02
1.688711E-03	0.000000E+00	9.651200E+02
1.471481E-03	0.000000E+00	9.655600E+02
2.417159E-03	0.000000E+00	9.660100E+02
2.732641E-04	0.000000E+00	9.664500E+02
9.149742E-04	0.000000E+00	9.669000E+02
6.248230E-04	0.000000E+00	9.673400E+02
1.178260E-03	0.000000E+00	9.681300E+02
2.886928E-03	0.000000E+00	9.686700E+02
1.701760E-03	0.000000E+00	9.693500E+02
1.631141E-03	0.000000E+00	9.701000E+02
1.611951E-03	0.000000E+00	9.710400E+02
1.667986E-03	0.000000E+00	9.714900E+02
1.591226E-03	0.000000E+00	9.719300E+02
1.810759E-03	0.000000E+00	9.724700E+02
1.761632E-03	0.000000E+00	9.730200E+02
1.804618E-03	0.000000E+00	9.734600E+02
1.776984E-03	0.000000E+00	9.739100E+02
1.670289E-03	0.000000E+00	9.746500E+02
2.301252E-03	0.000000E+00	9.754400E+02
1.011691E-03	0.000000E+00	9.762400E+02
3.538617E-04	0.000000E+00	9.767700E+02
1.846068E-03	0.000000E+00	9.773400E+02
1.813829E-03	0.000000E+00	9.778600E+02
1.136042E-04	0.000000E+00	9.783100E+02
1.970418E-03	0.000000E+00	9.787500E+02
1.935109E-03	0.000000E+00	9.792000E+02
2.974434E-03	0.000000E+00	9.796300E+02
1.773914E-03	0.000000E+00	9.802600E+02
1.867561E-03	0.000000E+00	9.812000E+02
1.852977E-03	0.000000E+00	9.816300E+02
1.909778E-03	0.000000E+00	9.822300E+02
2.068671E-03	0.000000E+00	9.831000E+02
1.955834E-03	0.000000E+00	9.836900E+02
2.015707E-03	0.000000E+00	9.841900E+02
2.030291E-03	0.000000E+00	9.846300E+02
9.955718E-04	0.000000E+00	9.850800E+02
8.320740E-04	0.000000E+00	9.859100E+02
9.418402E-04	0.000000E+00	9.865900E+02
2.222958E-03	0.000000E+00	9.872900E+02
2.417927E-03	0.000000E+00	9.881300E+02
1.264230E-03	0.000000E+00	9.886800E+02
1.668753E-03	0.000000E+00	9.892300E+02
1.836089E-03	0.000000E+00	9.899800E+02
1.917455E-03	0.000000E+00	9.909800E+02
1.920525E-03	0.000000E+00	9.915100E+02
1.922060E-03	0.000000E+00	9.921200E+02
1.945088E-03	0.000000E+00	9.928900E+02
1.920525E-03	0.000000E+00	9.934300E+02
1.675662E-03	0.000000E+00	9.941100E+02
9.295586E-04	0.000000E+00	9.946100E+02
1.168281E-03	0.000000E+00	9.951600E+02
1.348666E-03	0.000000E+00	9.956600E+02
1.365553E-03	0.000000E+00	9.963500E+02
2.199162E-03	0.000000E+00	9.968400E+02
1.535192E-03	0.000000E+00	9.976600E+02
1.652634E-03	0.000000E+00	9.984200E+02
1.707133E-03	0.000000E+00	9.990000E+02
1.778520E-03	0.000000E+00	9.999100E+02
1.780822E-03	0.000000E+00	1.000410E+03
1.826110E-03	0.000000E+00	1.001360E+03
1.779287E-03	0.000000E+00	1.001800E+03
1.791569E-03	0.000000E+00	1.002480E+03
1.216640E-03	0.000000E+00	1.003000E+03
1.484530E-03	0.000000E+00	1.003440E+03
9.456781E-04	0.000000E+00	1.003890E+03
1.683338E-03	0.000000E+00	1.004580E+03
1.342525E-03	0.000000E+00	1.005130E+03
1.182098E-03	0.000000E+00	1.005570E+03
1.367856E-03	0.000000E+00	1.006240E+03
1.377067E-03	0.000000E+00	1.006760E+03
1.658775E-03	0.000000E+00	1.007260E+03
1.683338E-03	0.000000E+00	1.007700E+03
1.737837E-03	0.000000E+00	1.008280E+03
1.713274E-03	0.000000E+00	1.008770E+03
1.746281E-03	0.000000E+00	1.009220E+03
1.700992E-03	0.000000E+00	1.009660E+03
1.816899E-03	0.000000E+00	1.010780E+03
1.771611E-03	0.000000E+00	1.011310E+03
1.790801E-03	0.000000E+00	1.011750E+03
1.790034E-03	0.000000E+00	1.012200E+03
2.763345E-04	0.000000E+00	1.012780E+03
1.046233E-03	0.000000E+00	1.013610E+03
6.040980E-04	0.000000E+00	1.014110E+03
1.320265E-03	0.000000E+00	1.014610E+03
1.236597E-03	0.000000E+00	1.015110E+03
1.214337E-03	0.000000E+00	1.015760E+03
1.661845E-03	0.000000E+00	1.016400E+03
1.545171E-03	0.000000E+00	1.016910E+03
1.600437E-03	0.000000E+00	1.017360E+03
1.669521E-03	0.000000E+00	1.017800E+03
1.704063E-03	0.000000E+00	1.018250E+03
1.710971E-03	0.000000E+00	1.018690E+03
1.712506E-03	0.000000E+00	1.019130E+03
1.757027E-03	0.000000E+00	1.019660E+03
1.721718E-03	0.000000E+00	1.020170E+03
1.766238E-03	0.000000E+00	1.021250E+03
1.466876E-03	0.000000E+00	1.021900E+03
1.136809E-03	0.000000E+00	1.022810E+03
8.604751E-04	0.000000E+00	1.023310E+03
2.814774E-03	0.000000E+00	1.023750E+03
2.456307E-04	0.000000E+00	1.024200E+03
-8.213276E-05	0.000000E+00	1.024640E+03
1.976559E-03	0.000000E+00	1.025260E+03
1.700992E-03	0.000000E+00	1.026100E+03
1.684105E-03	0.000000E+00	1.026860E+03
1.788498E-03	0.000000E+00	1.027650E+03
1.654937E-03	0.000000E+00	1.028410E+03
1.720182E-03	0.000000E+00	1.029300E+03
1.745513E-03	0.000000E+00	1.029790E+03
1.740140E-03	0.000000E+00	1.030870E+03
1.892124E-03	0.000000E+00	1.031740E+03
1.393187E-03	0.000000E+00	1.032340E+03
1.851441E-03	0.000000E+00	1.032860E+03
6.271258E-04	0.000000E+00	1.033310E+03
1.502953E-03	0.000000E+00	1.033760E+03
4.137341E-04	0.000000E+00	1.034210E+03
8.504962E-04	0.000000E+00	1.034780E+03
1.220477E-03	0.000000E+00	1.035310E+03
2.549954E-03	0.000000E+00	1.035880E+03
1.648796E-03	0.000000E+00	1.036760E+03
1.628071E-03	0.000000E+00	1.037260E+03
1.707901E-03	0.000000E+00	1.037910E+03
1.651866E-03	0.000000E+00	1.038480E+03
1.661077E-03	0.000000E+00	1.039030E+03
1.778519E-03	0.000000E+00	1.039600E+03
1.737837E-03	0.000000E+00	1.040330E+03
1.710203E-03	0.000000E+00	1.041360E+03
1.902870E-03	0.000000E+00	1.042240E+03
1.123760E-03	0.000000E+00	1.043070E+03
1.125296E-03	0.000000E+00	1.043930E+03
1.229689E-03	0.000000E+00	1.044820E+03
1.331779E-03	0.000000E+00	1.045570E+03
1.582783E-03	0.000000E+00	1.046080E+03
1.759330E-03	0.000000E+00	1.046770E+03
1.629606E-03	0.000000E+00	1.047270E+03
1.725555E-03	0.000000E+00	1.048050E+03
1.822273E-03	0.000000E+00	1.048660E+03
1.747816E-03	0.000000E+00	1.049170E+03
1.753957E-03	0.000000E+00	1.049950E+03
1.754724E-03	0.000000E+00	1.050550E+03
1.792336E-03	0.000000E+00	1.051670E+03
4.198749E-04	0.000000E+00	1.052250E+03
1.240435E-03	0.000000E+00	1.053170E+03
7.361245E-04	0.000000E+00	1.053670E+03
9.211151E-05	0.000000E+00	1.054120E+03
1.321800E-03	0.000000E+00	1.054560E+03
2.626713E-03	0.000000E+00	1.055010E+03
1.440010E-03	0.000000E+00	1.055600E+03
1.548241E-03	0.000000E+00	1.056420E+03
1.658007E-03	0.000000E+00	1.056930E+03
1.643423E-03	0.000000E+00	1.057370E+03
1.561290E-03	0.000000E+00	1.057810E+03
1.579712E-03	0.000000E+00	1.058260E+03
1.620395E-03	0.000000E+00	1.058700E+03
1.747816E-03	0.000000E+00	1.059350E+03
1.720182E-03	0.000000E+00	1.060120E+03
1.806153E-03	0.000000E+00	1.061170E+03
1.317962E-03	0.000000E+00	1.061790E+03
5.649505E-04	0.000000E+00	1.062560E+03
8.228628E-04	0.000000E+00	1.063140E+03
1.680267E-03	0.000000E+00	1.063760E+03
5.987248E-04	0.000000E+00	1.064260E+03
7.115614E-04	0.000000E+00	1.064790E+03
-6.294287E-05	0.000000E+00	1.065510E+03
1.185936E-03	0.000000E+00	1.066050E+03
1.484530E-03	0.000000E+00	1.066570E+03
1.633444E-03	0.000000E+00	1.067130E+03
1.768541E-03	0.000000E+00	1.068030E+03
1.671824E-03	0.000000E+00	1.068750E+03
1.679500E-03	0.000000E+00	1.069350E+03
1.611951E-03	0.000000E+00	1.069870E+03
2.120867E-03	0.000000E+00	1.070980E+03
1.466108E-03	0.000000E+00	1.071530E+03
1.680267E-03	0.000000E+00	1.072500E+03
9.594948E-04	0.000000E+00	1.073010E+03
5.534367E-04	0.000000E+00	1.073500E+03
1.175189E-03	0.000000E+00	1.074400E+03
1.732464E-03	0.000000E+00	1.075210E+03
1.715577E-03	0.000000E+00	1.075790E+03
1.729393E-03	0.000000E+00	1.076590E+03
1.715577E-03	0.000000E+00	1.077120E+03
1.629606E-03	0.000000E+00	1.077610E+03
1.649563E-03	0.000000E+00	1.078290E+03
1.699457E-03	0.000000E+00	1.078820E+03
1.707133E-03	0.000000E+00	1.079670E+03
1.772379E-03	0.000000E+00	1.080410E+03
1.833787E-03	0.000000E+00	1.081510E+03
6.616676E-04	0.000000E+00	1.082390E+03
8.320740E-04	0.000000E+00	1.083260E+03
1.724020E-03	0.000000E+00	1.084050E+03
5.910488E-04	0.000000E+00	1.084560E+03
1.515234E-03	0.000000E+00	1.085060E+03
1.647261E-03	0.000000E+00	1.085560E+03
1.744745E-03	0.000000E+00	1.086070E+03
1.783125E-03	0.000000E+00	1.086760E+03
1.803083E-03	0.000000E+00	1.087260E+03
1.870631E-03	0.000000E+00	1.088140E+03
1.767006E-03	0.000000E+00	1.088670E+03
1.852976E-03	0.000000E+00	1.089120E+03
1.965045E-03	0.000000E+00	1.089710E+03
2.004960E-03	0.000000E+00	1.090410E+03
8.144193E-04	0.000000E+00	1.091360E+03
1.071564E-03	0.000000E+00	1.092190E+03
2.237542E-03	0.000000E+00	1.092740E+03
2.110889E-03	0.000000E+00	1.093290E+03
1.215872E-03	0.000000E+00	1.093770E+03
1.023205E-03	0.000000E+00	1.094350E+03
1.383208E-03	0.000000E+00	1.094950E+03
1.979630E-03	0.000000E+00	1.095490E+03
2.031826E-03	0.000000E+00	1.096330E+03
1.218942E-03	0.000000E+00	1.096830E+03
1.457665E-03	0.000000E+00	1.097280E+03
7.944618E-04	0.000000E+00	1.097840E+03
1.410841E-03	0.000000E+00	1.098370E+03
1.685641E-03	0.000000E+00	1.099260E+03
1.508326E-03	0.000000E+00	1.099880E+03
1.009389E-03	0.000000E+00	1.101010E+03
1.245808E-03	0.000000E+00	1.101740E+03
1.215104E-03	0.000000E+00	1.102270E+03
1.445383E-03	0.000000E+00	1.102710E+03
1.643423E-03	0.000000E+00	1.103160E+03
1.411609E-03	0.000000E+00	1.103660E+03
1.056212E-03	0.000000E+00	1.104230E+03
4.413676E-04	0.000000E+00	1.104770E+03
1.940482E-03	0.000000E+00	1.105430E+03
1.228153E-03	0.000000E+00	1.106280E+03
1.146788E-03	0.000000E+00	1.107050E+03
1.235062E-03	0.000000E+00	1.107570E+03
1.473016E-03	0.000000E+00	1.108140E+03
9.832904E-04	0.000000E+00	1.108850E+03
1.806921E-03	0.000000E+00	1.109700E+03
1.427728E-03	0.000000E+00	1.110580E+03
1.264998E-03	0.000000E+00	1.111520E+03
1.657240E-03	0.000000E+00	1.112090E+03
9.994098E-04	0.000000E+00	1.112660E+03
1.499115E-03	0.000000E+00	1.113460E+03
1.248111E-03	0.000000E+00	1.114360E+03
9.326290E-04	0.000000E+00	1.114930E+03
1.310286E-03	0.000000E+00	1.115760E+03
1.437707E-03	0.000000E+00	1.116370E+03
1.073099E-03	0.000000E+00	1.117250E+03
9.840578E-04	0.000000E+00	1.117790E+03
7.230753E-04	0.000000E+00	1.118600E+03
4.697687E-04	0.000000E+00	1.119100E+03
1.107641E-03	0.000000E+00	1.119630E+03
1.191309E-03	0.000000E+00	1.120190E+03
1.010924E-03	0.000000E+00	1.121360E+03
1.307216E-03	0.000000E+00	1.122170E+03
1.262695E-03	0.000000E+00	1.122670E+03
1.347131E-03	0.000000E+00	1.123120E+03
1.319497E-03	0.000000E+00	1.123880E+03
1.160605E-03	0.000000E+00	1.124810E+03
5.979572E-04	0.000000E+00	1.125610E+03
1.136042E-03	0.000000E+00	1.126400E+03
1.560522E-03	0.000000E+00	1.126940E+03
1.258857E-03	0.000000E+00	1.127390E+03
1.126063E-03	0.000000E+00	1.127970E+03
1.049304E-03	0.000000E+00	1.128480E+03
5.227328E-04	0.000000E+00	1.129180E+03
1.138345E-03	0.000000E+00	1.129730E+03
1.407003E-03	0.000000E+00	1.130240E+03
9.802199E-04	0.000000E+00	1.131550E+03
1.083078E-03	0.000000E+00	1.132160E+03
1.361715E-03	0.000000E+00	1.132730E+03
1.504488E-03	0.000000E+00	1.133640E+03
1.458432E-03	0.000000E+00	1.134430E+03
1.205125E-03	0.000000E+00	1.134930E+03
9.403050E-04	0.000000E+00	1.135500E+03
7.998348E-04	0.000000E+00	1.136440E+03
9.610301E-04	0.000000E+00	1.137340E+03
1.321800E-03	0.000000E+00	1.137890E+03
7.315188E-04	0.000000E+00	1.138840E+03
8.727565E-04	0.000000E+00	1.139490E+03
9.587273E-04	0.000000E+00	1.140050E+03
1.003248E-03	0.000000E+00	1.141230E+03
8.451231E-04	0.000000E+00	1.141880E+03
1.286491E-03	0.000000E+00	1.142590E+03
1.247343E-03	0.000000E+00	1.143150E+03
1.380137E-03	0.000000E+00	1.143580E+03
6.739492E-04	0.000000E+00	1.144040E+03
8.696861E-04	0.000000E+00	1.144480E+03
8.850381E-04	0.000000E+00	1.144930E+03
1.430799E-03	0.000000E+00	1.145440E+03
7.652931E-04	0.000000E+00	1.145940E+03
7.161669E-04	0.000000E+00	1.146640E+03
1.103035E-03	0.000000E+00	1.147290E+03
1.478390E-03	0.000000E+00	1.147940E+03
4.221777E-04	0.000000E+00	1.148500E+03
1.397792E-03	0.000000E+00	1.149340E+03
8.666157E-04	0.000000E+00	1.150020E+03
8.243980E-04	0.000000E+00	1.151120E+03
6.110063E-04	0.000000E+00	1.151630E+03
8.420527E-04	0.000000E+00	1.152270E+03
6.900687E-04	0.000000E+00	1.153180E+03
1.397024E-03	0.000000E+00	1.153740E+03
8.389823E-04	0.000000E+00	1.154640E+03
1.165978E-03	0.000000E+00	1.155380E+03
1.009388E-03	0.000000E+00	1.155940E+03
9.410725E-04	0.000000E+00	1.156480E+03
1.224315E-03	0.000000E+00	1.157250E+03
8.059757E-04	0.000000E+00	1.157840E+03
1.014762E-03	0.000000E+00	1.158340E+03
1.075402E-03	0.000000E+00	1.158780E+03
9.955717E-04	0.000000E+00	1.159390E+03
8.382148E-04	0.000000E+00	1.160220E+03
9.587273E-04	0.000000E+00	1.161390E+03
9.610301E-04	0.000000E+00	1.162290E+03
7.115614E-04	0.000000E+00	1.162840E+03
4.989373E-04	0.000000E+00	1.163340E+03
1.027811E-03	0.000000E+00	1.163820E+03
3.799600E-04	0.000000E+00	1.164470E+03
6.701113E-04	0.000000E+00	1.165230E+03
1.697154E-03	0.000000E+00	1.165780E+03
4.505788E-04	0.000000E+00	1.166290E+03
9.142067E-04	0.000000E+00	1.167070E+03
6.969771E-04	0.000000E+00	1.167570E+03
9.303262E-04	0.000000E+00	1.168070E+03
4.375296E-04	0.000000E+00	1.168730E+03
8.566370E-04	0.000000E+00	1.169550E+03
1.188239E-03	0.000000E+00	1.170150E+03
8.428203E-04	0.000000E+00	1.171420E+03
7.092586E-04	0.000000E+00	1.171920E+03
7.814126E-04	0.000000E+00	1.172610E+03
1.373996E-03	0.000000E+00	1.173180E+03
1.240435E-03	0.000000E+00	1.173840E+03
1.099197E-03	0.000000E+00	1.174410E+03
1.036254E-03	0.000000E+00	1.174980E+03
9.541216E-04	0.000000E+00	1.175560E+03
7.683635E-04	0.000000E+00	1.176160E+03
1.007853E-03	0.000000E+00	1.176700E+03
1.023973E-03	0.000000E+00	1.177250E+03
8.290036E-04	0.000000E+00	1.177970E+03
9.710088E-04	0.000000E+00	1.178660E+03
5.472959E-04	0.000000E+00	1.179200E+03
7.000475E-04	0.000000E+00	1.179810E+03
6.900687E-04	0.000000E+00	1.180770E+03
5.357820E-04	0.000000E+00	1.181910E+03
4.590223E-04	0.000000E+00	1.182410E+03
5.211976E-04	0.000000E+00	1.182860E+03
6.394074E-04	0.000000E+00	1.183300E+03
4.958669E-04	0.000000E+00	1.183870E+03
6.033304E-04	0.000000E+00	1.184530E+03
4.490436E-04	0.000000E+00	1.185040E+03
4.313888E-04	0.000000E+00	1.185530E+03
3.208550E-04	0.000000E+00	1.186270E+03
6.923715E-04	0.000000E+00	1.187010E+03
3.646080E-04	0.000000E+00	1.187810E+03
4.805150E-04	0.000000E+00	1.188380E+03
1.366321E-03	0.000000E+00	1.188930E+03
1.458432E-03	0.000000E+00	1.189570E+03
1.549009E-03	0.000000E+00	1.190070E+03
1.605043E-03	0.000000E+00	1.191270E+03
1.605811E-03	0.000000E+00	1.191780E+03
1.601973E-03	0.000000E+00	1.192230E+03
1.602740E-03	0.000000E+00	1.192660E+03
1.607346E-03	0.000000E+00	1.193110E+03
1.619627E-03	0.000000E+00	1.193590E+03
1.632677E-03	0.000000E+00	1.194200E+03
1.610416E-03	0.000000E+00	1.194690E+03
1.597367E-03	0.000000E+00	1.195360E+03
1.595832E-03	0.000000E+00	1.195880E+03
1.585086E-03	0.000000E+00	1.196570E+03
1.203590E-03	0.000000E+00	1.197210E+03
5.971896E-04	0.000000E+00	1.198110E+03
1.294167E-03	0.000000E+00	1.198640E+03
3.231578E-04	0.000000E+00	1.199130E+03
1.333314E-03	0.000000E+00	1.199710E+03
9.234179E-04	0.000000E+00	1.200420E+03
4.828178E-04	0.000000E+00	1.201600E+03
3.822628E-04	0.000000E+00	1.202240E+03
6.194499E-04	0.000000E+00	1.203000E+03
7.952293E-04	0.000000E+00	1.203540E+03
-4.145020E-05	0.000000E+00	1.204040E+03
7.921589E-04	0.000000E+00	1.204780E+03
9.157419E-04	0.000000E+00	1.205280E+03
