CORRW ASCII
  CorrWare for Windows: Version 3.5f
  Potentiodynamic	[-0.25 OC,0.15 OC,2.5mV/S][default]	100%O2_700C_IV_SweepAfter1.z
  Date: 11-05-2019    Time: 15:31:47
   
   
  Open Circuit Potential (V): 0.0173
  Begin Information:          Cell Information
    Surface Area:             1
    Density:                  0
    Weight:                   0
    Polarity:                 0
    PolarityI:                0
    Corrosion Unit Type:      0
    Reference Type:           0
    Reference Potential:      0
    User-Defined Potential:   0
    Stern-Geary:              26
  End Information:            Cell Information
  Begin Pstat:                1287
    Pstat Title:              Instrument #1
    Booster Type:             0
    Booster Name:             None
    Current Range:            0
    Current Limit:            0
    Current LimitType:        0
    Sweep Type:               0
    Use Error Beep:           1
    Auxilary Type:            0
    iR Comp. Type:            0
    iR Ohms:                  0
    iR Time:                  27
    iR Ratio:                 255
    LP Filter Type:           2
    Drift Correction:         1
    Null Correction:          0
    Pstat Bandwidth Type:     2
    Gstat Bandwidth Type:     2
    External Input:           0
    SafetyMinV:               0
    SafetyMaxV:               10
    SafetyMinI:               0
    SafetyMaxI:               4
    SafetyMinQ:               0
    SafetyMaxQ:               1000
    SafetyMinT:               0
    SafetyMaxT:               50
    SafetyChT:                0
    SafetyMinVUse:            0
    SafetyMaxVUse:            0
    SafetyMinIUse:            0
    SafetyMaxIUse:            0
    SafetyMinQUse:            0
    SafetyMaxQUse:            0
    SafetyMinTUse:            0
    SafetyMaxTUse:            0
  End Pstat:                  1287
  Begin Experiment:           Potentiodynamic	[-0.25 OC,0.15 OC,2.5mV/S][default]	100%O2_700C_IV_SweepAfter1.z
    Data File:                \\ANALYSIS\ANALYSIS_Data\191101_Amezawa\fr_XAS\TPB2\100% O2\Electrochem\100%O2_700C_IV_SweepAfter1.z
    Data Append:              0
    Comment Lines:            0
    Potential #1:             -0.25
    Potential #1 Type:        0
    Potential #2:             0
    Potential #2 Type:        0
    Use Potential #2:         0
    Potential #3:             0
    Potential #3 Type:        0
    Use Potential #3:         0
    Potential #4:             0.15
    Potential #4 Type:        0
    Scan Rate:                2.5
    Measure Rate Type:        2
    Measure Rate #1:          2000
    Measure Rate #2:          1
    Measure Rate #3:          1
    Measure Rate #4:          0.1
    Measure Rate #5:          1
    Use Threshold:            0
    Use Reverse:              0
    Threshold E_Min:          -10
    Threshold E_Max:          10
    Threshold I_Min:          0.001
    Threshold I_Max:          -0.001
    Axes Type:                5
    Use Custom Pstat:         0
  End Experiment:             Potentiodynamic	[-0.25 OC,0.15 OC,2.5mV/S][default]	100%O2_700C_IV_SweepAfter1.z
  Data Points:                316
  E(Volts)	I(A/cm2)	T(Seconds)
End Comments
-2.320287E-01	-7.660943E-04	0.000000E+00
-2.307160E-01	-7.533687E-04	4.500000E-01
-2.294800E-01	-7.425325E-04	8.900000E-01
-2.282133E-01	-7.324258E-04	1.330000E+00
-2.270234E-01	-7.234251E-04	1.800000E+00
-2.256339E-01	-7.132416E-04	2.290000E+00
-2.244517E-01	-7.052238E-04	2.730000E+00
-2.232925E-01	-6.974979E-04	3.170000E+00
-2.221640E-01	-6.900255E-04	3.610000E+00
-2.210201E-01	-6.827910E-04	4.050000E+00
-2.198609E-01	-6.755873E-04	4.510000E+00
-2.186096E-01	-6.680688E-04	4.990000E+00
-2.174658E-01	-6.611263E-04	5.440000E+00
-2.163526E-01	-6.545677E-04	5.870000E+00
-2.152395E-01	-6.477787E-04	6.320000E+00
-2.141263E-01	-6.414889E-04	6.760000E+00
-2.129901E-01	-6.346769E-04	7.230000E+00
-2.106180E-01	-6.207457E-04	8.150000E+00
-2.095125E-01	-6.146479E-04	8.590000E+00
-2.084224E-01	-6.083504E-04	9.030000E+00
-2.073169E-01	-6.020683E-04	9.510000E+00
-2.060963E-01	-5.950797E-04	9.970000E+00
-2.049832E-01	-5.889281E-04	1.041000E+01
-2.038931E-01	-5.826153E-04	1.085000E+01
-2.027876E-01	-5.766557E-04	1.130000E+01
-2.017129E-01	-5.705503E-04	1.174000E+01
-2.005921E-01	-5.643910E-04	1.220000E+01
-1.993868E-01	-5.579093E-04	1.268000E+01
-1.982813E-01	-5.518576E-04	1.312000E+01
-1.972066E-01	-5.460900E-04	1.356000E+01
-1.961241E-01	-5.404146E-04	1.400000E+01
-1.950263E-01	-5.345011E-04	1.445000E+01
-1.939439E-01	-5.285646E-04	1.493000E+01
-1.926542E-01	-5.219292E-04	1.541000E+01
-1.915794E-01	-5.161386E-04	1.585000E+01
-1.904740E-01	-5.103634E-04	1.630000E+01
-1.893992E-01	-5.049030E-04	1.674000E+01
-1.883014E-01	-4.992199E-04	1.720000E+01
-1.859984E-01	-4.873777E-04	1.812000E+01
-1.849236E-01	-4.820325E-04	1.856000E+01
-1.838565E-01	-4.764262E-04	1.900000E+01
-1.827587E-01	-4.709812E-04	1.944000E+01
-1.816917E-01	-4.656821E-04	1.991000E+01
-1.804250E-01	-4.594922E-04	2.039000E+01
-1.793656E-01	-4.541240E-04	2.083000E+01
-1.782755E-01	-4.488787E-04	2.127000E+01
-1.771930E-01	-4.435489E-04	2.171000E+01
-1.761106E-01	-4.382574E-04	2.219000E+01
-1.748900E-01	-4.324054E-04	2.266000E+01
-1.738075E-01	-4.272753E-04	2.310000E+01
-1.727174E-01	-4.220453E-04	2.355000E+01
-1.716504E-01	-4.168614E-04	2.399000E+01
-1.705526E-01	-4.117466E-04	2.446000E+01
-1.693473E-01	-4.063170E-04	2.493000E+01
-1.682649E-01	-4.011792E-04	2.537000E+01
-1.670841E-01	-3.960414E-04	2.585000E+01
-1.647092E-01	-3.850439E-04	2.684000E+01
-1.636131E-01	-3.801518E-04	2.729000E+01
-1.614369E-01	-3.705213E-04	2.819000E+01
-1.602441E-01	-3.652529E-04	2.866000E+01
-1.591725E-01	-3.607525E-04	2.910000E+01
-1.580756E-01	-3.560295E-04	2.955000E+01
-1.570041E-01	-3.512910E-04	2.999000E+01
-1.559164E-01	-3.467215E-04	3.044000E+01
-1.548471E-01	-3.420982E-04	3.090000E+01
-1.536121E-01	-3.370680E-04	3.139000E+01
-1.525589E-01	-3.327135E-04	3.182000E+01
-1.514735E-01	-3.281210E-04	3.227000E+01
-1.504027E-01	-3.238663E-04	3.271000E+01
-1.493074E-01	-3.193505E-04	3.316000E+01
-1.480762E-01	-3.143894E-04	3.366000E+01
-1.470069E-01	-3.100580E-04	3.410000E+01
-1.459123E-01	-3.056804E-04	3.455000E+01
-1.448430E-01	-3.016716E-04	3.499000E+01
-1.437561E-01	-2.973325E-04	3.544000E+01
-1.425188E-01	-2.925710E-04	3.595000E+01
-1.414326E-01	-2.884008E-04	3.640000E+01
-1.403649E-01	-2.843305E-04	3.684000E+01
-1.392903E-01	-2.803754E-04	3.728000E+01
-1.369829E-01	-2.717586E-04	3.823000E+01
-1.359213E-01	-2.679264E-04	3.867000E+01
-1.348390E-01	-2.638791E-04	3.911000E+01
-1.337689E-01	-2.600853E-04	3.955000E+01
-1.327004E-01	-2.561225E-04	3.999000E+01
-1.316181E-01	-2.523056E-04	4.046000E+01
-1.304038E-01	-2.482430E-04	4.094000E+01
-1.293200E-01	-2.444722E-04	4.139000E+01
-1.282599E-01	-2.409011E-04	4.183000E+01
-1.271768E-01	-2.372455E-04	4.227000E+01
-1.261183E-01	-2.337742E-04	4.271000E+01
-1.248802E-01	-2.295042E-04	4.322000E+01
-1.238155E-01	-2.262095E-04	4.366000E+01
-1.227555E-01	-2.226768E-04	4.410000E+01
-1.216632E-01	-2.192439E-04	4.454000E+01
-1.206047E-01	-2.158264E-04	4.498000E+01
-1.195293E-01	-2.124012E-04	4.545000E+01
-1.183172E-01	-2.086842E-04	4.592000E+01
-1.172341E-01	-2.053127E-04	4.637000E+01
-1.161749E-01	-2.021793E-04	4.681000E+01
-1.150933E-01	-1.988616E-04	4.725000E+01
-1.129709E-01	-1.928407E-04	4.815000E+01
-1.117996E-01	-1.893924E-04	4.861000E+01
-1.107403E-01	-1.863281E-04	4.905000E+01
-1.096495E-01	-1.833330E-04	4.950000E+01
-1.085926E-01	-1.803379E-04	4.994000E+01
-1.075179E-01	-1.773274E-04	5.041000E+01
-1.063235E-01	-1.741172E-04	5.087000E+01
-1.052497E-01	-1.712680E-04	5.132000E+01
-1.041827E-01	-1.683957E-04	5.176000E+01
-1.031027E-01	-1.656617E-04	5.220000E+01
-1.020365E-01	-1.627741E-04	5.264000E+01
-1.009788E-01	-1.600017E-04	5.311000E+01
-9.972837E-02	-1.567915E-04	5.360000E+01
-9.867828E-02	-1.542188E-04	5.403000E+01
-9.759752E-02	-1.515615E-04	5.448000E+01
-9.653363E-02	-1.489043E-04	5.492000E+01
-9.545209E-02	-1.464544E-04	5.536000E+01
-9.423314E-02	-1.434132E-04	5.587000E+01
-9.314393E-02	-1.409096E-04	5.632000E+01
-9.207773E-02	-1.384444E-04	5.676000E+01
-9.099004E-02	-1.359408E-04	5.721000E+01
-8.869186E-02	-1.307645E-04	5.816000E+01
-8.762721E-02	-1.285758E-04	5.860000E+01
-8.641902E-02	-1.271550E-04	5.913000E+01
-8.464357E-02	-1.239372E-04	5.985000E+01
-8.351597E-02	-1.212569E-04	6.031000E+01
-8.156320E-02	-1.174170E-04	6.114000E+01
-7.962733E-02	-1.134235E-04	6.192000E+01
-7.695456E-02	-1.080937E-04	6.301000E+01
-7.373756E-02	-1.005226E-04	6.351000E+01
-7.382814E-02	-9.719600E-05	6.430000E+01
-7.083222E-02	-9.559595E-05	6.480000E+01
-6.983127E-02	-9.393149E-05	6.527000E+01
-6.870904E-02	-9.204503E-05	6.575000E+01
-6.768123E-02	-9.026688E-05	6.620000E+01
-6.764362E-02	-9.006910E-05	6.688000E+01
-6.530322E-02	-8.632134E-05	6.783000E+01
-6.269493E-02	-8.179792E-05	6.892000E+01
-6.103231E-02	-7.920981E-05	6.959000E+01
-5.976118E-02	-6.807406E-05	7.015000E+01
-5.775315E-02	-3.199419E-05	7.095000E+01
-5.566759E-02	-7.078936E-05	7.146000E+01
-5.465436E-02	-6.903119E-05	7.190000E+01
-5.416080E-02	-6.679152E-05	7.246000E+01
-5.177434E-02	-4.727706E-05	7.344000E+01
-4.967036E-02	-5.502601E-05	7.431000E+01
-4.771530E-02	-5.868178E-05	7.488000E+01
-4.687631E-02	-5.653894E-05	7.545000E+01
-4.502487E-02	-5.476524E-05	7.601000E+01
-4.398170E-02	-5.336115E-05	7.646000E+01
-4.296311E-02	-5.179346E-05	7.690000E+01
-4.187236E-02	-5.035326E-05	7.735000E+01
-3.964326E-02	-4.726550E-05	7.830000E+01
-3.810730E-02	-4.472736E-05	7.908000E+01
-3.650226E-02	-4.238728E-05	7.963000E+01
-3.539001E-02	-4.127354E-05	8.010000E+01
-3.366522E-02	-3.656369E-05	8.092000E+01
-3.212773E-02	-3.742381E-05	8.146000E+01
-3.108226E-02	-3.616873E-05	8.193000E+01
-2.987714E-02	-3.454727E-05	8.241000E+01
-2.884242E-02	-3.333368E-05	8.285000E+01
-2.775780E-02	-3.196108E-05	8.330000E+01
-2.678526E-02	-3.012031E-05	8.377000E+01
-2.517485E-02	-2.887869E-05	8.438000E+01
-2.413475E-02	-2.761823E-05	8.482000E+01
-2.306779E-02	-2.630555E-05	8.526000E+01
-2.201926E-02	-2.509348E-05	8.573000E+01
-2.078112E-02	-2.359185E-05	8.622000E+01
-1.972952E-02	-2.237210E-05	8.666000E+01
-1.845454E-02	-2.045140E-05	8.725000E+01
-1.598902E-02	-1.805921E-05	8.822000E+01
-1.492437E-02	-1.686251E-05	8.867000E+01
-1.384052E-02	-1.564968E-05	8.911000E+01
-1.263770E-02	-1.427324E-05	8.962000E+01
-1.157458E-02	-1.313952E-05	9.006000E+01
-1.047999E-02	-1.189136E-05	9.051000E+01
-9.429915E-03	-1.074151E-05	9.095000E+01
-8.354514E-03	-9.561708E-06	9.140000E+01
-7.310583E-03	-8.465629E-06	9.187000E+01
-6.073219E-03	-7.116075E-06	9.235000E+01
-5.031591E-03	-6.056095E-06	9.278000E+01
-3.966168E-03	-4.825596E-06	9.323000E+01
-2.646671E-03	-3.068181E-06	9.380000E+01
-1.444615E-03	-1.965187E-06	9.427000E+01
-3.960795E-04	-9.021350E-07	9.471000E+01
9.656356E-04	9.113521E-07	9.530000E+01
2.137755E-03	1.869942E-06	9.576000E+01
3.329831E-03	3.187131E-06	9.626000E+01
4.915684E-03	5.461584E-06	9.693000E+01
6.017184E-03	6.171309E-06	9.737000E+01
8.385985E-03	8.828940E-06	9.838000E+01
9.592646E-03	9.657721E-06	9.886000E+01
1.067649E-02	1.065395E-05	9.931000E+01
1.173347E-02	1.155800E-05	9.975000E+01
1.281348E-02	1.256345E-05	1.002000E+02
1.385357E-02	1.353894E-05	1.006300E+02
1.490978E-02	1.459354E-05	1.010700E+02
1.644574E-02	1.661148E-05	1.017000E+02
1.768234E-02	1.730110E-05	1.022500E+02
1.939024E-02	1.918423E-05	1.029100E+02
2.069899E-02	2.024830E-05	1.034700E+02
2.174753E-02	2.136973E-05	1.039100E+02
2.283291E-02	2.248425E-05	1.043600E+02
2.388835E-02	2.346818E-05	1.048000E+02
2.494533E-02	2.458423E-05	1.052400E+02
2.619958E-02	2.580782E-05	1.057600E+02
2.733486E-02	2.693309E-05	1.062300E+02
2.896984E-02	2.899138E-05	1.068900E+02
3.018187E-02	2.977813E-05	1.074200E+02
3.244167E-02	3.207937E-05	1.083600E+02
3.349788E-02	3.314472E-05	1.088000E+02
3.457405E-02	3.423312E-05	1.092500E+02
3.562029E-02	3.532382E-05	1.096900E+02
3.670029E-02	3.639840E-05	1.101300E+02
3.774346E-02	3.743687E-05	1.105700E+02
3.896317E-02	3.868888E-05	1.110800E+02
4.005469E-02	3.974963E-05	1.115300E+02
4.108787E-02	4.083418E-05	1.119700E+02
4.217248E-02	4.196790E-05	1.124100E+02
4.323330E-02	4.309163E-05	1.128500E+02
4.431331E-02	4.414700E-05	1.133000E+02
4.553072E-02	4.545585E-05	1.138100E+02
4.660228E-02	4.657958E-05	1.142600E+02
4.764698E-02	4.761651E-05	1.146900E+02
4.870933E-02	4.873948E-05	1.151400E+02
4.972870E-02	4.985322E-05	1.155700E+02
5.079336E-02	5.097465E-05	1.160300E+02
5.200386E-02	5.220746E-05	1.165200E+02
5.306544E-02	5.339494E-05	1.169600E+02
5.516405E-02	5.568005E-05	1.178400E+02
5.623868E-02	5.679993E-05	1.183200E+02
5.743383E-02	5.816101E-05	1.187800E+02
5.849465E-02	5.935694E-05	1.192300E+02
5.954165E-02	6.054520E-05	1.196700E+02
6.058481E-02	6.171655E-05	1.201200E+02
6.164486E-02	6.290864E-05	1.205600E+02
6.269340E-02	6.410381E-05	1.210000E+02
6.391004E-02	6.544952E-05	1.215100E+02
6.540377E-02	6.802798E-05	1.220000E+02
6.742255E-02	7.027049E-05	1.228500E+02
6.843885E-02	7.084313E-05	1.234100E+02
6.945822E-02	7.223032E-05	1.238500E+02
7.185696E-02	7.593821E-05	1.246800E+02
7.274199E-02	7.608081E-05	1.252400E+02
7.393407E-02	7.766694E-05	1.257100E+02
7.497954E-02	7.900728E-05	1.261600E+02
7.599430E-02	8.032381E-05	1.266000E+02
7.706586E-02	8.178243E-05	1.270400E+02
7.925351E-02	8.457985E-05	1.279800E+02
8.162767E-02	8.893248E-05	1.287200E+02
8.212969E-02	8.862467E-05	1.292200E+02
8.318513E-02	9.010096E-05	1.296600E+02
8.424057E-02	9.153962E-05	1.301000E+02
8.676827E-02	9.638961E-05	1.308200E+02
8.712750E-02	9.566433E-05	1.313800E+02
8.826969E-02	9.734494E-05	1.318500E+02
8.924069E-02	9.877053E-05	1.323000E+02
9.025469E-02	1.002414E-04	1.327400E+02
9.231262E-02	1.033814E-04	1.336200E+02
9.555417E-02	1.101595E-04	1.345100E+02
9.549660E-02	1.083395E-04	1.350200E+02
9.649371E-02	1.099525E-04	1.354700E+02
9.919258E-02	1.161805E-04	1.360100E+02
1.015990E-01	1.202125E-04	1.370000E+02
1.032716E-01	1.230156E-04	1.377000E+02
1.055605E-01	1.267557E-04	1.386900E+02
1.049872E-01	1.236025E-04	1.392900E+02
1.059812E-01	1.255857E-04	1.397200E+02
1.098437E-01	1.355721E-04	1.404600E+02
1.114549E-01	1.383829E-04	1.411300E+02
1.129832E-01	1.413858E-04	1.417100E+02
1.139181E-01	1.427451E-04	1.421900E+02
1.151440E-01	1.448263E-04	1.426700E+02
1.162294E-01	1.468461E-04	1.431200E+02
1.172871E-01	1.490041E-04	1.435600E+02
1.183326E-01	1.511084E-04	1.439900E+02
1.194041E-01	1.533509E-04	1.444700E+02
1.205862E-01	1.558238E-04	1.449300E+02
1.216693E-01	1.582199E-04	1.453800E+02
1.227202E-01	1.605085E-04	1.458200E+02
1.238048E-01	1.629584E-04	1.462600E+02
1.248541E-01	1.653929E-04	1.467000E+02
1.259395E-01	1.678889E-04	1.471800E+02
1.281517E-01	1.732263E-04	1.480700E+02
1.292355E-01	1.758452E-04	1.485200E+02
1.302948E-01	1.785024E-04	1.489600E+02
1.313710E-01	1.812287E-04	1.494100E+02
1.324218E-01	1.838706E-04	1.498500E+02
1.335617E-01	1.868197E-04	1.503200E+02
1.346379E-01	1.896382E-04	1.507600E+02
1.357110E-01	1.925104E-04	1.512100E+02
1.367549E-01	1.953520E-04	1.516500E+02
1.378073E-01	1.982856E-04	1.520800E+02
1.388911E-01	2.013038E-04	1.525600E+02
1.400840E-01	2.046829E-04	1.530300E+02
1.411586E-01	2.077702E-04	1.534700E+02
1.422186E-01	2.108652E-04	1.539100E+02
1.432940E-01	2.140908E-04	1.543600E+02
1.443518E-01	2.172932E-04	1.548000E+02
1.454195E-01	2.206186E-04	1.552700E+02
1.466154E-01	2.243203E-04	1.557400E+02
1.476816E-01	2.277148E-04	1.561900E+02
1.487325E-01	2.310632E-04	1.566200E+02
1.497894E-01	2.344269E-04	1.570600E+02
1.519940E-01	2.418534E-04	1.579800E+02
1.530771E-01	2.455474E-04	1.584300E+02
1.541432E-01	2.492183E-04	1.588700E+02
1.552209E-01	2.530505E-04	1.593200E+02
1.573579E-01	2.606613E-04	1.602100E+02
1.584018E-01	2.645165E-04	1.606400E+02
1.594512E-01	2.684486E-04	1.611100E+02
1.606709E-01	2.730411E-04	1.615800E+02
1.617233E-01	2.771038E-04	1.620200E+02
1.627986E-01	2.812970E-04	1.624700E+02
1.638510E-01	2.854825E-04	1.629100E+02
1.649310E-01	2.897985E-04	1.633700E+02
