CORRW ASCII
  CorrWare for Windows: Version 3.5f
  Potentiodynamic	[-0.25 OC,0.15 OC,2.5mV/S][default]	100%O2_700C_IV_Sweep1.z
  Date: 11-05-2019    Time: 05:10:46
   
   
  Open Circuit Potential (V): 0.0021
  Begin Information:          Cell Information
    Surface Area:             1
    Density:                  0
    Weight:                   0
    Polarity:                 0
    PolarityI:                0
    Corrosion Unit Type:      0
    Reference Type:           0
    Reference Potential:      0
    User-Defined Potential:   0
    Stern-Geary:              26
  End Information:            Cell Information
  Begin Pstat:                1287
    Pstat Title:              Instrument #1
    Booster Type:             0
    Booster Name:             None
    Current Range:            0
    Current Limit:            0
    Current LimitType:        0
    Sweep Type:               0
    Use Error Beep:           1
    Auxilary Type:            0
    iR Comp. Type:            0
    iR Ohms:                  0
    iR Time:                  27
    iR Ratio:                 255
    LP Filter Type:           2
    Drift Correction:         1
    Null Correction:          0
    Pstat Bandwidth Type:     2
    Gstat Bandwidth Type:     2
    External Input:           0
    SafetyMinV:               0
    SafetyMaxV:               10
    SafetyMinI:               0
    SafetyMaxI:               4
    SafetyMinQ:               0
    SafetyMaxQ:               1000
    SafetyMinT:               0
    SafetyMaxT:               50
    SafetyChT:                0
    SafetyMinVUse:            0
    SafetyMaxVUse:            0
    SafetyMinIUse:            0
    SafetyMaxIUse:            0
    SafetyMinQUse:            0
    SafetyMaxQUse:            0
    SafetyMinTUse:            0
    SafetyMaxTUse:            0
  End Pstat:                  1287
  Begin Experiment:           Potentiodynamic	[-0.25 OC,0.15 OC,2.5mV/S][default]	100%O2_700C_IV_Sweep1.z
    Data File:                \\ANALYSIS\ANALYSIS_Data\191101_Amezawa\fr_XAS\TPB2\100% O2\Electrochem\100%O2_700C_IV_Sweep1.z
    Data Append:              0
    Comment Lines:            0
    Potential #1:             -0.25
    Potential #1 Type:        0
    Potential #2:             0
    Potential #2 Type:        0
    Use Potential #2:         0
    Potential #3:             0
    Potential #3 Type:        0
    Use Potential #3:         0
    Potential #4:             0.15
    Potential #4 Type:        0
    Scan Rate:                2.5
    Measure Rate Type:        2
    Measure Rate #1:          2000
    Measure Rate #2:          1
    Measure Rate #3:          1
    Measure Rate #4:          0.1
    Measure Rate #5:          1
    Use Threshold:            0
    Use Reverse:              0
    Threshold E_Min:          -10
    Threshold E_Max:          10
    Threshold I_Min:          0.001
    Threshold I_Max:          -0.001
    Axes Type:                5
    Use Custom Pstat:         0
  End Experiment:             Potentiodynamic	[-0.25 OC,0.15 OC,2.5mV/S][default]	100%O2_700C_IV_Sweep1.z
  Data Points:                310
  E(Volts)	I(A/cm2)	T(Seconds)
End Comments
-2.476050E-01	-7.497515E-04	0.000000E+00
-2.462846E-01	-7.383316E-04	4.400000E-01
-2.450563E-01	-7.286550E-04	8.800000E-01
-2.438511E-01	-7.199307E-04	1.360000E+00
-2.424846E-01	-7.110298E-04	1.830000E+00
-2.413254E-01	-7.036956E-04	2.270000E+00
-2.401815E-01	-6.968528E-04	2.710000E+00
-2.390300E-01	-6.901791E-04	3.150000E+00
-2.378861E-01	-6.838124E-04	3.630000E+00
-2.365887E-01	-6.766395E-04	4.110000E+00
-2.354449E-01	-6.705264E-04	4.560000E+00
-2.343241E-01	-6.646436E-04	5.000000E+00
-2.332033E-01	-6.587685E-04	5.450000E+00
-2.320901E-01	-6.530931E-04	5.880000E+00
-2.307927E-01	-6.462657E-04	6.400000E+00
-2.297026E-01	-6.407439E-04	6.840000E+00
-2.285818E-01	-6.348765E-04	7.290000E+00
-2.264323E-01	-6.240940E-04	8.180000E+00
-2.251810E-01	-6.178964E-04	8.670000E+00
-2.240985E-01	-6.125436E-04	9.110000E+00
-2.229931E-01	-6.070525E-04	9.560000E+00
-2.219030E-01	-6.017842E-04	1.000000E+01
-2.207975E-01	-5.963545E-04	1.048000E+01
-2.195615E-01	-5.902951E-04	1.095000E+01
-2.184561E-01	-5.849806E-04	1.140000E+01
-2.173736E-01	-5.797200E-04	1.184000E+01
-2.162298E-01	-5.741752E-04	1.231000E+01
-2.151473E-01	-5.689452E-04	1.278000E+01
-2.139037E-01	-5.630010E-04	1.326000E+01
-2.128289E-01	-5.580168E-04	1.370000E+01
-2.117695E-01	-5.528713E-04	1.413000E+01
-2.106641E-01	-5.476644E-04	1.458000E+01
-2.096047E-01	-5.426187E-04	1.502000E+01
-2.083457E-01	-5.366975E-04	1.553000E+01
-2.072786E-01	-5.317133E-04	1.597000E+01
-2.061731E-01	-5.266216E-04	1.642000E+01
-2.051137E-01	-5.214915E-04	1.686000E+01
-2.040236E-01	-5.165226E-04	1.730000E+01
-2.017052E-01	-5.057939E-04	1.825000E+01
-2.006381E-01	-5.007943E-04	1.869000E+01
-1.995710E-01	-4.959407E-04	1.913000E+01
-1.984963E-01	-4.909334E-04	1.958000E+01
-1.974215E-01	-4.860874E-04	2.001000E+01
-1.963314E-01	-4.811493E-04	2.049000E+01
-1.951185E-01	-4.755968E-04	2.096000E+01
-1.940284E-01	-4.706740E-04	2.141000E+01
-1.929689E-01	-4.658895E-04	2.185000E+01
-1.918635E-01	-4.609821E-04	2.230000E+01
-1.908194E-01	-4.562743E-04	2.273000E+01
-1.895528E-01	-4.506758E-04	2.325000E+01
-1.884780E-01	-4.458758E-04	2.369000E+01
-1.874186E-01	-4.411835E-04	2.413000E+01
-1.863438E-01	-4.363990E-04	2.458000E+01
-1.852844E-01	-4.317834E-04	2.501000E+01
-1.841943E-01	-4.270295E-04	2.548000E+01
-1.830044E-01	-4.219378E-04	2.595000E+01
-1.819220E-01	-4.172685E-04	2.640000E+01
-1.808626E-01	-4.127143E-04	2.683000E+01
-1.797878E-01	-4.081065E-04	2.728000E+01
-1.774924E-01	-3.984298E-04	2.822000E+01
-1.764330E-01	-3.939909E-04	2.866000E+01
-1.753736E-01	-3.895289E-04	2.910000E+01
-1.742835E-01	-3.849748E-04	2.955000E+01
-1.732241E-01	-3.806280E-04	2.999000E+01
-1.721494E-01	-3.761890E-04	3.046000E+01
-1.709518E-01	-3.713738E-04	3.092000E+01
-1.698693E-01	-3.669809E-04	3.137000E+01
-1.688099E-01	-3.626648E-04	3.181000E+01
-1.677275E-01	-3.583564E-04	3.226000E+01
-1.665568E-01	-3.537946E-04	3.274000E+01
-1.643062E-01	-3.448937E-04	3.367000E+01
-1.632508E-01	-3.407389E-04	3.411000E+01
-1.621631E-01	-3.365380E-04	3.456000E+01
-1.611000E-01	-3.324293E-04	3.500000E+01
-1.600184E-01	-3.282668E-04	3.547000E+01
-1.587995E-01	-3.236512E-04	3.595000E+01
-1.577187E-01	-3.195349E-04	3.639000E+01
-1.566625E-01	-3.155721E-04	3.683000E+01
-1.555909E-01	-3.115478E-04	3.727000E+01
-1.532674E-01	-3.029772E-04	3.823000E+01
-1.522127E-01	-2.991065E-04	3.867000E+01
-1.511504E-01	-2.952820E-04	3.911000E+01
-1.500627E-01	-2.913652E-04	3.956000E+01
-1.489988E-01	-2.875253E-04	4.003000E+01
-1.477799E-01	-2.831939E-04	4.050000E+01
-1.467267E-01	-2.794999E-04	4.094000E+01
-1.456559E-01	-2.757061E-04	4.138000E+01
-1.445974E-01	-2.720582E-04	4.182000E+01
-1.435105E-01	-2.683257E-04	4.227000E+01
-1.424535E-01	-2.646932E-04	4.273000E+01
-1.412146E-01	-2.604693E-04	4.322000E+01
-1.401500E-01	-2.568981E-04	4.366000E+01
-1.390861E-01	-2.533193E-04	4.410000E+01
-1.379999E-01	-2.497175E-04	4.455000E+01
-1.369453E-01	-2.462539E-04	4.498000E+01
-1.358729E-01	-2.427749E-04	4.543000E+01
-1.346501E-01	-2.388429E-04	4.593000E+01
-1.335809E-01	-2.353792E-04	4.638000E+01
-1.325262E-01	-2.320462E-04	4.682000E+01
-1.314400E-01	-2.286364E-04	4.726000E+01
-1.292347E-01	-2.218320E-04	4.818000E+01
-1.281578E-01	-2.185374E-04	4.863000E+01
-1.271039E-01	-2.153272E-04	4.906000E+01
-1.260239E-01	-2.121017E-04	4.951000E+01
-1.249708E-01	-2.089760E-04	4.994000E+01
-1.239007E-01	-2.058119E-04	5.042000E+01
-1.227094E-01	-2.023176E-04	5.088000E+01
-1.216379E-01	-1.992226E-04	5.133000E+01
-1.205855E-01	-1.961891E-04	5.176000E+01
-1.195308E-01	-1.931939E-04	5.220000E+01
-1.184447E-01	-1.901681E-04	5.265000E+01
-1.172203E-01	-1.867889E-04	5.315000E+01
-1.161419E-01	-1.838092E-04	5.360000E+01
-1.150910E-01	-1.809523E-04	5.404000E+01
-1.140210E-01	-1.780723E-04	5.448000E+01
-1.129671E-01	-1.752692E-04	5.492000E+01
-1.118901E-01	-1.724353E-04	5.539000E+01
-1.106835E-01	-1.692636E-04	5.586000E+01
-1.095973E-01	-1.664451E-04	5.631000E+01
-1.085381E-01	-1.637341E-04	5.675000E+01
-1.074826E-01	-1.610077E-04	5.719000E+01
-1.052067E-01	-1.553784E-04	5.813000E+01
-1.041367E-01	-1.527442E-04	5.858000E+01
-1.030774E-01	-1.501945E-04	5.902000E+01
-1.020012E-01	-1.476218E-04	5.946000E+01
-1.009450E-01	-1.451105E-04	5.990000E+01
-9.985808E-02	-1.426222E-04	6.038000E+01
-9.863914E-02	-1.398114E-04	6.086000E+01
-9.756067E-02	-1.373539E-04	6.130000E+01
-9.638011E-02	-1.368623E-04	6.183000E+01
-9.472518E-02	-1.332221E-04	6.248000E+01
-9.326828E-02	-1.304189E-04	6.312000E+01
-9.142911E-02	-1.259416E-04	6.386000E+01
-8.952087E-02	-1.219481E-04	6.466000E+01
-8.812769E-02	-1.187917E-04	6.521000E+01
-8.598839E-02	-1.145063E-04	6.612000E+01
-8.208977E-02	-1.069462E-04	6.662000E+01
-8.312757E-02	-1.089231E-04	6.729000E+01
-8.044251E-02	-1.045302E-04	6.843000E+01
-7.886741E-02	-1.016042E-04	6.905000E+01
-7.736676E-02	-9.900075E-05	6.970000E+01
-7.582850E-02	-9.632049E-05	7.033000E+01
-7.455198E-02	-9.356342E-05	7.086000E+01
-7.316264E-02	-9.088316E-05	7.143000E+01
-7.052134E-02	-8.678891E-05	7.192000E+01
-6.908210E-02	-8.421707E-05	7.311000E+01
-6.623738E-02	-7.954111E-05	7.365000E+01
-6.654289E-02	-7.977812E-05	7.417000E+01
-6.485034E-02	-7.708250E-05	7.487000E+01
-6.287455E-02	-7.400289E-05	7.569000E+01
-6.135625E-02	-7.199077E-05	7.632000E+01
-5.931597E-02	-6.919402E-05	7.682000E+01
-5.829661E-02	-6.756795E-04	7.727000E+01
-5.597386E-02	-6.351992E-05	7.858000E+01
-5.288583E-02	-5.994762E-05	7.960000E+01
-5.173136E-02	-5.831694E-05	8.008000E+01
-5.026909E-02	-5.533321E-05	8.092000E+01
-4.860878E-02	-5.346945E-05	8.142000E+01
-4.757559E-02	-5.224587E-05	8.188000E+01
-4.665064E-02	-2.466763E-05	8.242000E+01
-4.449907E-02	-4.157095E-05	8.332000E+01
-4.264686E-02	-4.625314E-05	8.394000E+01
-4.160446E-02	-4.499729E-05	8.438000E+01
-4.058202E-02	-4.376679E-05	8.482000E+01
-3.930244E-02	-4.050345E-05	8.547000E+01
-3.784094E-02	-4.055152E-05	8.596000E+01
-3.676938E-02	-3.921733E-05	8.645000E+01
-3.558958E-02	-3.784473E-05	8.692000E+01
-3.451188E-02	-3.638475E-04	8.736000E+01
-3.224210E-02	-3.292044E-05	8.834000E+01
-3.108149E-02	-3.183281E-05	8.882000E+01
-3.000072E-02	-3.083427E-05	8.926000E+01
-2.898979E-02	-2.989258E-05	8.970000E+01
-2.793281E-02	-2.872814E-05	9.014000E+01
-2.685818E-02	-2.758904E-05	9.062000E+01
-2.567839E-02	-2.638543E-05	9.108000E+01
-2.461373E-02	-2.518105E-05	9.153000E+01
-2.357057E-02	-2.407191E-05	9.197000E+01
-2.243453E-02	-2.286753E-05	9.244000E+01
-2.137831E-02	-2.172920E-05	9.291000E+01
-2.016935E-02	-2.041805E-05	9.338000E+01
-1.913310E-02	-1.936191E-05	9.382000E+01
-1.806307E-02	-1.822359E-05	9.427000E+01
-1.701453E-02	-1.717743E-05	9.471000E+01
-1.596292E-02	-1.615279E-05	9.514000E+01
-1.490748E-02	-1.501600E-05	9.559000E+01
-1.369698E-02	-1.379548E-05	9.609000E+01
-1.263002E-02	-1.276623E-05	9.653000E+01
-1.157074E-02	-1.163712E-05	9.697000E+01
-1.050148E-02	-1.071309E-05	9.742000E+01
-8.212509E-03	-8.467931E-06	9.838000E+01
-7.168578E-03	-7.524704E-06	9.881000E+01
-6.091641E-03	-6.440913E-06	9.926000E+01
-4.831248E-03	-4.734192E-06	9.981000E+01
-3.621517E-03	-3.737197E-06	1.002900E+02
-2.573749E-03	-2.864634E-06	1.007300E+02
-1.528283E-03	-1.995143E-06	1.011700E+02
-2.348844E-04	-2.446403E-07	1.017300E+02
1.281118E-03	1.386807E-06	1.023400E+02
2.530764E-03	2.916096E-06	1.028800E+02
4.112779E-03	7.103017E-06	1.035600E+02
5.594239E-03	7.501661E-06	1.041400E+02
6.689598E-03	7.444054E-06	1.045800E+02
7.741204E-03	7.755135E-06	1.050200E+02
8.821212E-03	8.338891E-06	1.054700E+02
9.870515E-03	9.008676E-06	1.059100E+02
1.112400E-02	9.944991E-06	1.064300E+02
1.217637E-02	1.079605E-05	1.068700E+02
1.381980E-02	1.359331E-05	1.075400E+02
1.618169E-02	1.496914E-05	1.085400E+02
1.722869E-02	1.553984E-05	1.089900E+02
1.843151E-02	1.655527E-05	1.094700E+02
1.949310E-02	1.746316E-05	1.099100E+02
2.055545E-02	1.836108E-05	1.103600E+02
2.232476E-02	2.046676E-05	1.110700E+02
2.350532E-02	2.087661E-05	1.115800E+02
2.453927E-02	2.184288E-05	1.120300E+02
2.573826E-02	2.296124E-05	1.125100E+02
2.678142E-02	2.388680E-05	1.129500E+02
2.784608E-02	2.480545E-05	1.133900E+02
2.888080E-02	2.583393E-05	1.138300E+02
2.996618E-02	2.676257E-05	1.142800E+02
3.121889E-02	2.794237E-05	1.148000E+02
3.229660E-02	2.893937E-05	1.152400E+02
3.333209E-02	2.982345E-05	1.156800E+02
3.438369E-02	3.084503E-05	1.161100E+02
3.544911E-02	3.178595E-05	1.165600E+02
3.650609E-02	3.273916E-05	1.170000E+02
3.756538E-02	3.374845E-05	1.174400E+02
4.034945E-02	3.684017E-05	1.185700E+02
4.160984E-02	3.742996E-05	1.191300E+02
4.267219E-02	3.849762E-05	1.195800E+02
4.373992E-02	3.947464E-05	1.200200E+02
4.480304E-02	4.054154E-05	1.204600E+02
4.584467E-02	4.153008E-05	1.209000E+02
4.707896E-02	4.270144E-05	1.214200E+02
4.815820E-02	4.377908E-05	1.218600E+02
5.018926E-02	4.637853E-05	1.226600E+02
5.132760E-02	4.701740E-05	1.232200E+02
5.259030E-02	4.828861E-05	1.237100E+02
5.359969E-02	4.924028E-05	1.241400E+02
5.470042E-02	5.032408E-05	1.245900E+02
5.777157E-02	5.418124E-05	1.258100E+02
5.890378E-02	5.456322E-05	1.263700E+02
6.064085E-02	5.696134E-05	1.269900E+02
6.429998E-02	6.022798E-05	1.286200E+02
6.534006E-02	6.142160E-05	1.290600E+02
6.643466E-02	6.267744E-05	1.295200E+02
6.830606E-02	6.552435E-05	1.301700E+02
6.928320E-02	6.586200E-05	1.307100E+02
7.149695E-02	6.947947E-05	1.315200E+02
7.240041E-02	6.944212E-05	1.320200E+02
7.559514E-02	7.312055E-05	1.333800E+02
7.665826E-02	7.443554E-05	1.338100E+02
7.768454E-02	7.573671E-05	1.342800E+02
7.884899E-02	7.717228E-05	1.347600E+02
8.052925E-02	8.051539E-05	1.352700E+02
8.133829E-02	8.021473E-05	1.358500E+02
8.257721E-02	8.181776E-05	1.363200E+02
8.359274E-02	8.309358E-05	1.367600E+02
8.460135E-02	8.440626E-05	1.372000E+02
8.750977E-02	8.959295E-05	1.381800E+02
8.927371E-02	9.230394E-05	1.388800E+02
8.980181E-02	9.154730E-05	1.394200E+02
9.078895E-02	9.297289E-05	1.398600E+02
9.310247E-02	9.773357E-05	1.405000E+02
9.353156E-02	9.672431E-05	1.410300E+02
9.454863E-02	9.814838E-05	1.414700E+02
9.734651E-02	1.091074E-04	1.423400E+02
9.774797E-02	1.028899E-04	1.428700E+02
1.001958E-01	1.086082E-04	1.434800E+02
1.003279E-01	1.067595E-04	1.440200E+02
1.033245E-01	1.139611E-04	1.447100E+02
1.045995E-01	1.155124E-04	1.452400E+02
1.061002E-01	1.180928E-04	1.459100E+02
1.077743E-01	1.209958E-04	1.465900E+02
1.096242E-01	1.246207E-04	1.473400E+02
1.120920E-01	1.287755E-04	1.483800E+02
1.137946E-01	1.329917E-04	1.490800E+02
1.155616E-01	1.362556E-04	1.497900E+02
1.172725E-01	1.397269E-04	1.505500E+02
1.182950E-01	1.407637E-04	1.510000E+02
1.194878E-01	1.425684E-04	1.514800E+02
1.205356E-01	1.443118E-04	1.519200E+02
1.216171E-01	1.463700E-04	1.523700E+02
1.226603E-01	1.483437E-04	1.528000E+02
1.237334E-01	1.506016E-04	1.532700E+02
1.249278E-01	1.530591E-04	1.537400E+02
1.259763E-01	1.553784E-04	1.541800E+02
1.270486E-01	1.577208E-04	1.546300E+02
1.281141E-01	1.600938E-04	1.550700E+02
1.291864E-01	1.626205E-04	1.555200E+02
1.303977E-01	1.654083E-04	1.560200E+02
1.314792E-01	1.680041E-04	1.564700E+02
1.325285E-01	1.705154E-04	1.569100E+02
1.335939E-01	1.731956E-04	1.573500E+02
1.358936E-01	1.789401E-04	1.583100E+02
1.369353E-01	1.816127E-04	1.587400E+02
1.379938E-01	1.844159E-04	1.591800E+02
1.390684E-01	1.872958E-04	1.596300E+02
1.401338E-01	1.902449E-04	1.600700E+02
1.413681E-01	1.936086E-04	1.605800E+02
1.424167E-01	1.965654E-04	1.610200E+02
1.434982E-01	1.996296E-04	1.614700E+02
1.445468E-01	2.026478E-04	1.619100E+02
1.456114E-01	2.057351E-04	1.623500E+02
1.468204E-01	2.093370E-04	1.628500E+02
1.478858E-01	2.125702E-04	1.633000E+02
1.489343E-01	2.158341E-04	1.637400E+02
1.499921E-01	2.191671E-04	1.641800E+02
