CORRW ASCII
  CorrWare for Windows: Version 3.5f
  Potentiostatic	[0.05 Ref,1 Hour][default]	IV_+50mV_1.cor
  Date: 11-05-2019    Time: 01:08:26
   
   
  Open Circuit Potential (V): 0.0021
  Begin Information:          Cell Information
    Surface Area:             1
    Density:                  0
    Weight:                   0
    Polarity:                 0
    PolarityI:                0
    Corrosion Unit Type:      0
    Reference Type:           0
    Reference Potential:      0
    User-Defined Potential:   0
    Stern-Geary:              26
  End Information:            Cell Information
  Begin Pstat:                1287
    Pstat Title:              Instrument #1
    Booster Type:             0
    Booster Name:             None
    Current Range:            0
    Current Limit:            0
    Current LimitType:        0
    Sweep Type:               0
    Use Error Beep:           1
    Auxilary Type:            0
    iR Comp. Type:            0
    iR Ohms:                  0
    iR Time:                  27
    iR Ratio:                 255
    LP Filter Type:           2
    Drift Correction:         1
    Null Correction:          0
    Pstat Bandwidth Type:     2
    Gstat Bandwidth Type:     2
    External Input:           0
    SafetyMinV:               0
    SafetyMaxV:               10
    SafetyMinI:               0
    SafetyMaxI:               4
    SafetyMinQ:               0
    SafetyMaxQ:               1000
    SafetyMinT:               0
    SafetyMaxT:               50
    SafetyChT:                0
    SafetyMinVUse:            0
    SafetyMaxVUse:            0
    SafetyMinIUse:            0
    SafetyMaxIUse:            0
    SafetyMinQUse:            0
    SafetyMaxQUse:            0
    SafetyMinTUse:            0
    SafetyMaxTUse:            0
  End Pstat:                  1287
  Begin Experiment:           Potentiostatic	[0.05 Ref,1 Hour][default]	IV_+50mV_1.cor
    Data File:                Z:\191101_Amezawa\fr_XAS\TPB2\100% O2\Electrochem\IV_+50mV_1.cor
    Data Append:              0
    Comment Lines:            0
    Potential:                0.05
    Potential Type:           1
    Total Time:               1
    Time Units:               2
    Time Marker:              -1
    Measure Rate Type:        1
    Measure Rate #1:          2000
    Measure Rate #2:          600
    Measure Rate #3:          0.1
    Measure Rate #4:          2
    Use Threshold:            0
    Threshold I_Min:          -15
    Threshold I_Max:          15
    Threshold Delta:          5
    Threshold Time:           60
    Copy AuxV:                0
    Axes Type:                1
    Use Custom Pstat:         0
  End Experiment:             Potentiostatic	[0.05 Ref,1 Hour][default]	IV_+50mV_1.cor
  Data Points:                83
  E(Volts)	I(A/cm2)	T(Seconds)
End Comments
7.511616E-02	1.458247E-04	0.000000E+00
4.981006E-02	6.713627E-05	9.500000E-01
4.979702E-02	6.660167E-05	1.400000E+00
4.982542E-02	6.619842E-05	1.840000E+00
4.980547E-02	6.575215E-05	2.290000E+00
5.015932E-02	6.832749E-05	2.940000E+00
4.983386E-02	6.493951E-05	3.480000E+00
4.983617E-02	6.481354E-05	3.930000E+00
4.980547E-02	6.463380E-05	4.370000E+00
4.980930E-02	6.451628E-05	4.810000E+00
4.984461E-02	6.449400E-05	5.250000E+00
4.983617E-02	6.437648E-05	5.690000E+00
4.984845E-02	6.432887E-05	6.140000E+00
5.019003E-02	6.550900E-05	6.620000E+00
4.984077E-02	6.396708E-05	7.120000E+00
4.983924E-02	6.403468E-05	7.560000E+00
4.982926E-02	6.397554E-05	8.000000E+00
4.983386E-02	6.398859E-05	8.440000E+00
4.983924E-02	6.396786E-05	8.890000E+00
4.983002E-02	6.385495E-05	9.760000E+00
4.981467E-02	6.379426E-05	1.021000E+01
5.016162E-02	6.500980E-05	1.091000E+01
4.986303E-02	6.364448E-05	1.144000E+01
4.983386E-02	6.361453E-05	1.189000E+01
4.985075E-02	6.367060E-05	1.233000E+01
4.983002E-02	6.358611E-05	1.277000E+01
5.016162E-02	6.496371E-05	1.331000E+01
5.015932E-02	6.497908E-05	1.392000E+01
4.984691E-02	6.335876E-05	1.444000E+01
4.984922E-02	6.345170E-05	1.489000E+01
4.985382E-02	6.347320E-05	1.533000E+01
4.983079E-02	6.339793E-05	1.577000E+01
4.985075E-02	6.344709E-05	1.621000E+01
4.984691E-02	6.343172E-05	1.665000E+01
5.018389E-02	1.098216E-06	1.737000E+01
4.984691E-02	6.293783E-05	1.789000E+01
4.983155E-02	6.324661E-05	1.834000E+01
4.985382E-02	6.333034E-05	1.878000E+01
5.010406E-02	6.461812E-05	2.006000E+01
4.983923E-02	6.315137E-05	2.059000E+01
4.983770E-02	6.321359E-05	2.104000E+01
5.016086E-02	6.454901E-05	2.161000E+01
4.986840E-02	6.315060E-05	2.216000E+01
4.985535E-02	6.316673E-05	2.260000E+01
4.985996E-02	6.316903E-05	2.305000E+01
4.984077E-02	6.313677E-05	2.349000E+01
4.984537E-02	6.314830E-05	2.394000E+01
4.982926E-02	6.310452E-05	2.438000E+01
5.018773E-02	6.428789E-05	2.499000E+01
4.986687E-02	6.298699E-05	2.550000E+01
4.984844E-02	6.302232E-05	2.595000E+01
4.985689E-02	6.303692E-05	2.639000E+01
4.985382E-02	6.301618E-05	2.683000E+01
4.987147E-02	6.304383E-05	2.728000E+01
4.984077E-02	6.296548E-05	2.772000E+01
4.983232E-02	6.292324E-05	2.816000E+01
4.985075E-02	6.295244E-05	2.860000E+01
4.983923E-02	6.292247E-05	2.905000E+01
5.019156E-02	6.420341E-05	3.012000E+01
4.983463E-02	6.275887E-05	3.066000E+01
5.018312E-02	6.411894E-05	3.126000E+01
4.984768E-02	6.261293E-05	3.175000E+01
4.986380E-02	6.276117E-05	3.220000E+01
4.987838E-02	6.279189E-05	3.264000E+01
4.986073E-02	6.273505E-05	3.309000E+01
4.985689E-02	6.277884E-05	3.353000E+01
4.983923E-02	6.275810E-05	3.398000E+01
4.984768E-02	6.273967E-05	3.442000E+01
4.986380E-02	6.274888E-05	3.487000E+01
4.985151E-02	6.270510E-05	3.531000E+01
5.016162E-02	6.394230E-05	3.587000E+01
4.985382E-02	6.255993E-05	3.641000E+01
4.985766E-02	6.262829E-05	3.686000E+01
4.984768E-02	6.259602E-05	3.730000E+01
4.985919E-02	6.263213E-05	3.774000E+01
5.017928E-02	6.377335E-05	3.855000E+01
4.985305E-02	6.243934E-05	3.905000E+01
4.986456E-02	6.252767E-05	3.994000E+01
4.987838E-02	6.256608E-05	4.037000E+01
4.985842E-02	6.249388E-05	4.081000E+01
4.985689E-02	6.246776E-05	4.126000E+01
4.984614E-02	6.245930E-05	4.170000E+01
4.985842E-02	6.248696E-05	4.215000E+01
