CORRW ASCII
  CorrWare for Windows: Version 3.5f
  Potentiostatic	[-0.22 Ref,3600 Sec][default]	IV_-220mV_2.cor
  Date: 11-05-2019    Time: 01:48:41
   
   
  Open Circuit Potential (V): 0.0022
  Begin Information:          Cell Information
    Surface Area:             1
    Density:                  0
    Weight:                   0
    Polarity:                 0
    PolarityI:                0
    Corrosion Unit Type:      0
    Reference Type:           0
    Reference Potential:      0
    User-Defined Potential:   0
    Stern-Geary:              26
  End Information:            Cell Information
  Begin Pstat:                1287
    Pstat Title:              Instrument #1
    Booster Type:             0
    Booster Name:             None
    Current Range:            0
    Current Limit:            0
    Current LimitType:        0
    Sweep Type:               0
    Use Error Beep:           1
    Auxilary Type:            0
    iR Comp. Type:            0
    iR Ohms:                  0
    iR Time:                  27
    iR Ratio:                 255
    LP Filter Type:           2
    Drift Correction:         1
    Null Correction:          0
    Pstat Bandwidth Type:     2
    Gstat Bandwidth Type:     2
    External Input:           0
    SafetyMinV:               0
    SafetyMaxV:               10
    SafetyMinI:               0
    SafetyMaxI:               4
    SafetyMinQ:               0
    SafetyMaxQ:               1000
    SafetyMinT:               0
    SafetyMaxT:               50
    SafetyChT:                0
    SafetyMinVUse:            0
    SafetyMaxVUse:            0
    SafetyMinIUse:            0
    SafetyMaxIUse:            0
    SafetyMinQUse:            0
    SafetyMaxQUse:            0
    SafetyMinTUse:            0
    SafetyMaxTUse:            0
  End Pstat:                  1287
  Begin Experiment:           Potentiostatic	[-0.22 Ref,3600 Sec][default]	IV_-220mV_2.cor
    Data File:                Z:\191101_Amezawa\fr_XAS\TPB2\100% O2\Electrochem\IV_-220mV_2.cor
    Data Append:              0
    Comment Lines:            0
    Potential:                -0.22
    Potential Type:           1
    Total Time:               3600
    Time Units:               0
    Time Marker:              -1
    Measure Rate Type:        1
    Measure Rate #1:          2000
    Measure Rate #2:          10
    Measure Rate #3:          0.1
    Measure Rate #4:          2
    Use Threshold:            0
    Threshold I_Min:          -15
    Threshold I_Max:          15
    Threshold Delta:          5
    Threshold Time:           60
    Copy AuxV:                0
    Axes Type:                1
    Use Custom Pstat:         0
  End Experiment:             Potentiostatic	[-0.22 Ref,3600 Sec][default]	IV_-220mV_2.cor
  Data Points:                1293
  E(Volts)	I(A/cm2)	T(Seconds)
End Comments
-2.191393E-01	-7.274800E-04	0.000000E+00
-2.200912E-01	-7.116442E-04	8.900000E-01
-2.200912E-01	-7.086030E-04	1.340000E+00
-2.200835E-01	-7.070978E-04	1.790000E+00
-2.200912E-01	-7.065294E-04	2.220000E+00
-2.201066E-01	-7.063220E-04	2.670000E+00
-2.200989E-01	-7.066293E-04	3.110000E+00
-2.200912E-01	-7.069902E-04	3.550000E+00
-2.200912E-01	-7.077121E-04	4.000000E+00
-2.200912E-01	-7.086721E-04	4.440000E+00
-2.200912E-01	-7.096705E-04	4.890000E+00
-2.200989E-01	-7.105921E-04	5.330000E+00
-2.201066E-01	-7.117747E-04	5.780000E+00
-2.200912E-01	-7.127578E-04	6.220000E+00
-2.200912E-01	-7.140480E-04	6.670000E+00
-2.200912E-01	-7.151539E-04	7.100000E+00
-2.200912E-01	-7.162905E-04	7.540000E+00
-2.200989E-01	-7.175346E-04	7.990000E+00
-2.201142E-01	-7.187941E-04	8.440000E+00
-2.201066E-01	-7.199998E-04	8.890000E+00
-2.200989E-01	-7.223652E-04	9.770000E+00
-2.201066E-01	-7.234711E-04	1.021000E+01
-2.201142E-01	-7.248535E-04	1.065000E+01
-2.201142E-01	-7.259978E-04	1.110000E+01
-2.201066E-01	-7.271728E-04	1.154000E+01
-2.201066E-01	-7.284093E-04	1.199000E+01
-2.200989E-01	-7.294921E-04	1.243000E+01
-2.201142E-01	-7.307209E-04	1.287000E+01
-2.201142E-01	-7.317193E-04	1.332000E+01
-2.200989E-01	-7.328713E-04	1.377000E+01
-2.201066E-01	-7.342459E-04	1.421000E+01
-2.201066E-01	-7.352213E-04	1.465000E+01
-2.201142E-01	-7.363579E-04	1.510000E+01
-2.201219E-01	-7.374791E-04	1.554000E+01
-2.201142E-01	-7.385390E-04	1.599000E+01
-2.201066E-01	-7.395758E-04	1.642000E+01
-2.201066E-01	-7.405357E-04	1.687000E+01
-2.201142E-01	-7.415187E-04	1.730000E+01
-2.201219E-01	-7.426937E-04	1.775000E+01
-2.201142E-01	-7.438535E-04	1.819000E+01
-2.200989E-01	-7.447980E-04	1.863000E+01
-2.200989E-01	-7.470867E-04	1.952000E+01
-2.201066E-01	-7.481464E-04	1.997000E+01
-2.201066E-01	-7.493522E-04	2.041000E+01
-2.201066E-01	-7.503429E-04	2.086000E+01
-2.200989E-01	-7.513873E-04	2.130000E+01
-2.200989E-01	-7.524317E-04	2.175000E+01
-2.200989E-01	-7.534148E-04	2.219000E+01
-2.201066E-01	-7.544976E-04	2.263000E+01
-2.201066E-01	-7.554576E-04	2.307000E+01
-2.200989E-01	-7.565097E-04	2.352000E+01
-2.201142E-01	-7.576464E-04	2.397000E+01
-2.201066E-01	-7.585910E-04	2.440000E+01
-2.200989E-01	-7.596124E-04	2.485000E+01
-2.200989E-01	-7.604726E-04	2.529000E+01
-2.200912E-01	-7.615400E-04	2.575000E+01
-2.200989E-01	-7.625461E-04	2.618000E+01
-2.200989E-01	-7.634600E-04	2.662000E+01
-2.201066E-01	-7.644507E-04	2.707000E+01
-2.201142E-01	-7.653415E-04	2.750000E+01
-2.201066E-01	-7.662708E-04	2.795000E+01
-2.200989E-01	-7.670772E-04	2.839000E+01
-2.201066E-01	-7.680141E-04	2.884000E+01
-2.200912E-01	-7.699725E-04	2.973000E+01
-2.200989E-01	-7.709325E-04	3.017000E+01
-2.200989E-01	-7.717696E-04	3.061000E+01
-2.200989E-01	-7.726912E-04	3.106000E+01
-2.200989E-01	-7.734515E-04	3.150000E+01
-2.201066E-01	-7.743423E-04	3.195000E+01
-2.201066E-01	-7.752639E-04	3.238000E+01
-2.201066E-01	-7.761086E-04	3.283000E+01
-2.201066E-01	-7.769918E-04	3.327000E+01
-2.200912E-01	-7.778520E-04	3.372000E+01
-2.200912E-01	-7.787505E-04	3.415000E+01
-2.200989E-01	-7.795646E-04	3.460000E+01
-2.200989E-01	-7.804094E-04	3.505000E+01
-2.200989E-01	-7.813079E-04	3.549000E+01
-2.201066E-01	-7.821604E-04	3.594000E+01
-2.201142E-01	-7.829284E-04	3.638000E+01
-2.201066E-01	-7.837117E-04	3.682000E+01
-2.201066E-01	-7.845103E-04	3.726000E+01
-2.201066E-01	-7.853169E-04	3.771000E+01
-2.201142E-01	-7.859773E-04	3.815000E+01
-2.201066E-01	-7.866455E-04	3.859000E+01
-2.200912E-01	-7.881967E-04	3.948000E+01
-2.201066E-01	-7.889187E-04	3.992000E+01
-2.201066E-01	-7.896867E-04	4.036000E+01
-2.201066E-01	-7.904163E-04	4.081000E+01
-2.201066E-01	-7.910997E-04	4.125000E+01
-2.201142E-01	-7.918600E-04	4.170000E+01
-2.201066E-01	-7.926665E-04	4.214000E+01
-2.201142E-01	-7.933807E-04	4.258000E+01
-2.201066E-01	-7.940872E-04	4.303000E+01
-2.201066E-01	-7.948091E-04	4.346000E+01
-2.201066E-01	-7.955310E-04	4.391000E+01
-2.201066E-01	-7.961685E-04	4.435000E+01
-2.201066E-01	-7.968981E-04	4.480000E+01
-2.201142E-01	-7.976277E-04	4.525000E+01
-2.201142E-01	-7.983496E-04	4.570000E+01
-2.201142E-01	-7.989946E-04	4.614000E+01
-2.201066E-01	-7.996320E-04	4.657000E+01
-2.201066E-01	-8.003309E-04	4.702000E+01
-2.201142E-01	-8.009376E-04	4.746000E+01
-2.201142E-01	-8.016288E-04	4.791000E+01
-2.201066E-01	-8.023123E-04	4.835000E+01
-2.201066E-01	-8.029958E-04	4.880000E+01
-2.201142E-01	-8.042707E-04	4.968000E+01
-2.201066E-01	-8.049388E-04	5.012000E+01
-2.201066E-01	-8.054994E-04	5.056000E+01
-2.201142E-01	-8.061216E-04	5.101000E+01
-2.201142E-01	-8.067897E-04	5.145000E+01
-2.201142E-01	-8.074117E-04	5.190000E+01
-2.201142E-01	-8.079647E-04	5.234000E+01
-2.201066E-01	-8.085637E-04	5.279000E+01
-2.201066E-01	-8.091244E-04	5.323000E+01
-2.201142E-01	-8.097080E-04	5.367000E+01
-2.201066E-01	-8.102840E-04	5.411000E+01
-2.201142E-01	-8.109137E-04	5.455000E+01
-2.201066E-01	-8.115051E-04	5.500000E+01
-2.201142E-01	-8.120580E-04	5.544000E+01
-2.201066E-01	-8.125495E-04	5.589000E+01
-2.201066E-01	-8.131025E-04	5.633000E+01
-2.201066E-01	-8.136554E-04	5.678000E+01
-2.201142E-01	-8.142238E-04	5.721000E+01
-2.201066E-01	-8.147844E-04	5.765000E+01
-2.201142E-01	-8.152990E-04	5.810000E+01
-2.201066E-01	-8.157289E-04	5.854000E+01
-2.201142E-01	-8.167504E-04	5.943000E+01
-2.201142E-01	-8.172803E-04	5.988000E+01
-2.201142E-01	-8.177718E-04	6.031000E+01
-2.201142E-01	-8.182556E-04	6.077000E+01
-2.201219E-01	-8.187395E-04	6.121000E+01
-2.201219E-01	-8.192848E-04	6.167000E+01
-2.201219E-01	-8.197993E-04	6.212000E+01
-2.201142E-01	-8.202524E-04	6.256000E+01
-2.201142E-01	-8.207132E-04	6.301000E+01
-2.201219E-01	-8.211739E-04	6.345000E+01
-2.201219E-01	-8.216118E-04	6.390000E+01
-2.201142E-01	-8.220495E-04	6.434000E+01
-2.201142E-01	-8.225103E-04	6.478000E+01
-2.201219E-01	-8.229941E-04	6.522000E+01
-2.201219E-01	-8.234626E-04	6.567000E+01
-2.201142E-01	-8.239233E-04	6.611000E+01
-2.201219E-01	-8.243765E-04	6.655000E+01
-2.201219E-01	-8.248296E-04	6.700000E+01
-2.201142E-01	-8.252444E-04	6.744000E+01
-2.201066E-01	-8.256667E-04	6.788000E+01
-2.201066E-01	-8.260891E-04	6.832000E+01
-2.201066E-01	-8.266957E-04	6.877000E+01
-2.201066E-01	-8.275559E-04	6.965000E+01
-2.201142E-01	-8.280320E-04	7.010000E+01
-2.201142E-01	-8.284238E-04	7.053000E+01
-2.201066E-01	-8.288231E-04	7.098000E+01
-2.201066E-01	-8.292377E-04	7.142000E+01
-2.201066E-01	-8.296371E-04	7.187000E+01
-2.201066E-01	-8.300979E-04	7.231000E+01
-2.201142E-01	-8.304819E-04	7.276000E+01
-2.201142E-01	-8.308659E-04	7.320000E+01
-2.201142E-01	-8.312346E-04	7.363000E+01
-2.201066E-01	-8.316415E-04	7.408000E+01
-2.201142E-01	-8.320563E-04	7.452000E+01
-2.201066E-01	-8.324556E-04	7.497000E+01
-2.201066E-01	-8.328703E-04	7.541000E+01
-2.201142E-01	-8.332313E-04	7.586000E+01
-2.201142E-01	-8.335155E-04	7.630000E+01
-2.201142E-01	-8.338765E-04	7.675000E+01
-2.201142E-01	-8.342604E-04	7.718000E+01
-2.201219E-01	-8.346520E-04	7.762000E+01
-2.201219E-01	-8.349900E-04	7.807000E+01
-2.201219E-01	-8.353509E-04	7.851000E+01
-2.201142E-01	-8.359806E-04	7.939000E+01
-2.201066E-01	-8.363263E-04	7.984000E+01
-2.201142E-01	-8.366565E-04	8.028000E+01
-2.201142E-01	-8.369330E-04	8.073000E+01
-2.201066E-01	-8.372325E-04	8.117000E+01
-2.201142E-01	-8.375781E-04	8.161000E+01
-2.201066E-01	-8.378546E-04	8.206000E+01
-2.201142E-01	-8.381847E-04	8.250000E+01
-2.201142E-01	-8.385073E-04	8.295000E+01
-2.201142E-01	-8.388376E-04	8.339000E+01
-2.201142E-01	-8.391525E-04	8.383000E+01
-2.201142E-01	-8.395058E-04	8.427000E+01
-2.201142E-01	-8.398206E-04	8.472000E+01
-2.201142E-01	-8.401509E-04	8.516000E+01
-2.201142E-01	-8.404657E-04	8.560000E+01
-2.201142E-01	-8.407421E-04	8.605000E+01
-2.201066E-01	-8.410417E-04	8.649000E+01
-2.201066E-01	-8.413719E-04	8.695000E+01
-2.201142E-01	-8.416791E-04	8.738000E+01
-2.201142E-01	-8.419863E-04	8.783000E+01
-2.201066E-01	-8.422705E-04	8.827000E+01
-2.201219E-01	-8.423626E-04	8.872000E+01
-2.201142E-01	-8.429156E-04	8.959000E+01
-2.201142E-01	-8.431767E-04	9.004000E+01
-2.201142E-01	-8.433917E-04	9.048000E+01
-2.201142E-01	-8.436989E-04	9.092000E+01
-2.201219E-01	-8.439754E-04	9.136000E+01
-2.201219E-01	-8.442365E-04	9.181000E+01
-2.201142E-01	-8.445207E-04	9.225000E+01
-2.201219E-01	-8.447664E-04	9.271000E+01
-2.201219E-01	-8.450122E-04	9.315000E+01
-2.201219E-01	-8.452733E-04	9.358000E+01
-2.201296E-01	-8.455421E-04	9.403000E+01
-2.201219E-01	-8.457879E-04	9.447000E+01
-2.201296E-01	-8.460413E-04	9.492000E+01
-2.201296E-01	-8.463024E-04	9.536000E+01
-2.201296E-01	-8.465482E-04	9.581000E+01
-2.201219E-01	-8.467555E-04	9.625000E+01
-2.201296E-01	-8.469782E-04	9.670000E+01
-2.201296E-01	-8.472010E-04	9.714000E+01
-2.201373E-01	-8.474851E-04	9.758000E+01
-2.201219E-01	-8.476848E-04	9.803000E+01
-2.201219E-01	-8.479306E-04	9.846000E+01
-2.201142E-01	-8.483683E-04	9.935000E+01
-2.201219E-01	-8.486371E-04	9.980000E+01
-2.201219E-01	-8.488675E-04	1.002300E+02
-2.201219E-01	-8.490902E-04	1.006800E+02
-2.201219E-01	-8.492898E-04	1.011200E+02
-2.201142E-01	-8.495048E-04	1.015600E+02
-2.201142E-01	-8.497660E-04	1.020100E+02
-2.201219E-01	-8.499811E-04	1.024500E+02
-2.201142E-01	-8.501731E-04	1.029000E+02
-2.201142E-01	-8.503650E-04	1.033400E+02
-2.201142E-01	-8.505417E-04	1.037900E+02
-2.201219E-01	-8.507568E-04	1.042300E+02
-2.201219E-01	-8.510179E-04	1.046700E+02
-2.201219E-01	-8.512560E-04	1.051100E+02
-2.201219E-01	-8.514402E-04	1.055500E+02
-2.201219E-01	-8.516322E-04	1.060000E+02
-2.201219E-01	-8.517934E-04	1.064400E+02
-2.201219E-01	-8.519932E-04	1.068900E+02
-2.201219E-01	-8.522082E-04	1.073300E+02
-2.201219E-01	-8.524079E-04	1.077700E+02
-2.201219E-01	-8.525999E-04	1.082100E+02
-2.201219E-01	-8.527227E-04	1.086500E+02
-2.201142E-01	-8.530761E-04	1.095400E+02
-2.201219E-01	-8.532834E-04	1.099800E+02
-2.201219E-01	-8.534369E-04	1.104200E+02
-2.201219E-01	-8.536135E-04	1.108700E+02
-2.201219E-01	-8.537595E-04	1.113100E+02
-2.201296E-01	-8.539361E-04	1.117600E+02
-2.201219E-01	-8.541511E-04	1.122000E+02
-2.201219E-01	-8.543508E-04	1.126400E+02
-2.201219E-01	-8.544968E-04	1.130900E+02
-2.201142E-01	-8.546273E-04	1.135200E+02
-2.201219E-01	-8.547733E-04	1.139700E+02
-2.201219E-01	-8.549038E-04	1.144100E+02
-2.201219E-01	-8.550728E-04	1.148600E+02
-2.201219E-01	-8.553032E-04	1.153000E+02
-2.201142E-01	-8.554644E-04	1.157500E+02
-2.201142E-01	-8.556027E-04	1.161900E+02
-2.201142E-01	-8.557486E-04	1.166300E+02
-2.201219E-01	-8.559252E-04	1.170800E+02
-2.201219E-01	-8.560789E-04	1.175100E+02
-2.201219E-01	-8.562785E-04	1.179700E+02
-2.201219E-01	-8.564398E-04	1.184100E+02
-2.201219E-01	-8.568238E-04	1.188600E+02
-2.201219E-01	-8.571540E-04	1.197500E+02
-2.201219E-01	-8.573614E-04	1.201800E+02
-2.201219E-01	-8.574995E-04	1.206200E+02
-2.201219E-01	-8.576762E-04	1.210700E+02
-2.201219E-01	-8.578221E-04	1.215100E+02
-2.201219E-01	-8.579988E-04	1.219600E+02
-2.201142E-01	-8.581370E-04	1.224000E+02
-2.201219E-01	-8.582369E-04	1.228600E+02
-2.201219E-01	-8.584288E-04	1.233000E+02
-2.201219E-01	-8.585594E-04	1.237500E+02
-2.201219E-01	-8.587207E-04	1.241800E+02
-2.201219E-01	-8.588205E-04	1.246200E+02
-2.201219E-01	-8.589357E-04	1.250700E+02
-2.201296E-01	-8.590586E-04	1.255100E+02
-2.201219E-01	-8.591968E-04	1.259600E+02
-2.201142E-01	-8.593581E-04	1.264000E+02
-2.201219E-01	-8.594886E-04	1.268500E+02
-2.201219E-01	-8.595962E-04	1.272900E+02
-2.201219E-01	-8.597344E-04	1.277400E+02
-2.201219E-01	-8.598419E-04	1.281700E+02
-2.201219E-01	-8.600416E-04	1.286100E+02
-2.201142E-01	-8.602566E-04	1.295000E+02
-2.201219E-01	-8.603795E-04	1.299500E+02
-2.201296E-01	-8.604486E-04	1.303900E+02
-2.201219E-01	-8.606099E-04	1.308300E+02
-2.201219E-01	-8.607020E-04	1.312700E+02
-2.201142E-01	-8.608019E-04	1.317200E+02
-2.201219E-01	-8.610169E-04	1.321600E+02
-2.201219E-01	-8.610938E-04	1.326000E+02
-2.201219E-01	-8.612166E-04	1.330500E+02
-2.201142E-01	-8.613011E-04	1.334900E+02
-2.201219E-01	-8.614239E-04	1.339300E+02
-2.201219E-01	-8.615238E-04	1.343700E+02
-2.201142E-01	-8.616006E-04	1.348200E+02
-2.201142E-01	-8.617926E-04	1.352600E+02
-2.201296E-01	-8.619000E-04	1.357100E+02
-2.201219E-01	-8.619154E-04	1.361500E+02
-2.201219E-01	-8.620383E-04	1.365900E+02
-2.201219E-01	-8.621304E-04	1.370300E+02
-2.201219E-01	-8.622610E-04	1.374700E+02
-2.201219E-01	-8.623840E-04	1.379200E+02
-2.201219E-01	-8.624991E-04	1.383600E+02
-2.201142E-01	-8.624224E-04	1.388100E+02
-2.201142E-01	-8.625529E-04	1.396900E+02
-2.201219E-01	-8.625913E-04	1.401300E+02
-2.201219E-01	-8.626912E-04	1.405700E+02
-2.201219E-01	-8.627527E-04	1.410200E+02
-2.201142E-01	-8.628832E-04	1.414600E+02
-2.201219E-01	-8.629216E-04	1.419300E+02
-2.201219E-01	-8.630061E-04	1.423700E+02
-2.201219E-01	-8.631136E-04	1.428200E+02
-2.201142E-01	-8.631981E-04	1.432600E+02
-2.201219E-01	-8.632672E-04	1.437100E+02
-2.201219E-01	-8.632748E-04	1.441400E+02
-2.201219E-01	-8.633363E-04	1.445800E+02
-2.201219E-01	-8.634361E-04	1.450300E+02
-2.201219E-01	-8.635359E-04	1.454700E+02
-2.201219E-01	-8.636358E-04	1.459200E+02
-2.201219E-01	-8.637049E-04	1.463600E+02
-2.201142E-01	-8.637970E-04	1.468100E+02
-2.201219E-01	-8.638508E-04	1.472400E+02
-2.201219E-01	-8.639737E-04	1.476900E+02
-2.201219E-01	-8.640582E-04	1.481300E+02
-2.201219E-01	-8.641273E-04	1.485700E+02
-2.201219E-01	-8.642732E-04	1.494500E+02
-2.201219E-01	-8.643423E-04	1.499000E+02
-2.201219E-01	-8.643807E-04	1.503400E+02
-2.201219E-01	-8.644498E-04	1.507900E+02
-2.201219E-01	-8.645036E-04	1.512200E+02
-2.201219E-01	-8.645881E-04	1.516700E+02
-2.201142E-01	-8.646419E-04	1.521100E+02
-2.201142E-01	-8.647109E-04	1.525500E+02
-2.201219E-01	-8.647571E-04	1.530100E+02
-2.201142E-01	-8.648108E-04	1.534400E+02
-2.201142E-01	-8.648799E-04	1.538900E+02
-2.201219E-01	-8.649644E-04	1.543300E+02
-2.201219E-01	-8.650412E-04	1.547800E+02
-2.201219E-01	-8.651717E-04	1.552200E+02
-2.201219E-01	-8.652716E-04	1.556700E+02
-2.201219E-01	-8.653408E-04	1.561100E+02
-2.201219E-01	-8.654175E-04	1.565500E+02
-2.201219E-01	-8.654713E-04	1.569900E+02
-2.201219E-01	-8.655480E-04	1.574300E+02
-2.201219E-01	-8.656248E-04	1.578800E+02
-2.201142E-01	-8.657324E-04	1.583200E+02
-2.201296E-01	-8.659551E-04	1.587700E+02
-2.201219E-01	-8.661009E-04	1.596500E+02
-2.201296E-01	-8.661701E-04	1.601000E+02
-2.201296E-01	-8.662393E-04	1.605400E+02
-2.201296E-01	-8.663467E-04	1.609900E+02
-2.201296E-01	-8.664159E-04	1.614200E+02
-2.201219E-01	-8.664849E-04	1.618700E+02
-2.201296E-01	-8.665849E-04	1.623100E+02
-2.201296E-01	-8.666923E-04	1.627600E+02
-2.201296E-01	-8.667614E-04	1.632000E+02
-2.201296E-01	-8.667769E-04	1.636400E+02
-2.201296E-01	-8.668228E-04	1.640900E+02
-2.201296E-01	-8.669227E-04	1.645300E+02
-2.201296E-01	-8.669765E-04	1.649800E+02
-2.201296E-01	-8.670533E-04	1.654200E+02
-2.201296E-01	-8.671301E-04	1.658700E+02
-2.201296E-01	-8.671608E-04	1.663100E+02
-2.201296E-01	-8.671762E-04	1.667500E+02
-2.201296E-01	-8.672530E-04	1.671900E+02
-2.201296E-01	-8.673681E-04	1.676300E+02
-2.201296E-01	-8.674450E-04	1.680800E+02
-2.201296E-01	-8.674297E-04	1.685200E+02
-2.201142E-01	-8.675756E-04	1.694100E+02
-2.201219E-01	-8.676140E-04	1.698600E+02
-2.201219E-01	-8.676985E-04	1.702900E+02
-2.201219E-01	-8.677292E-04	1.707400E+02
-2.201219E-01	-8.677753E-04	1.711800E+02
-2.201219E-01	-8.677292E-04	1.716200E+02
-2.201219E-01	-8.677522E-04	1.720700E+02
-2.201219E-01	-8.678137E-04	1.725100E+02
-2.201219E-01	-8.678674E-04	1.729600E+02
-2.201219E-01	-8.679059E-04	1.733900E+02
-2.201219E-01	-8.679289E-04	1.738400E+02
-2.201219E-01	-8.679596E-04	1.742800E+02
-2.201219E-01	-8.679903E-04	1.747300E+02
-2.201219E-01	-8.680210E-04	1.751700E+02
-2.201219E-01	-8.681362E-04	1.756100E+02
-2.201219E-01	-8.681593E-04	1.760600E+02
-2.201219E-01	-8.681670E-04	1.765000E+02
-2.201142E-01	-8.682053E-04	1.769400E+02
-2.201142E-01	-8.681977E-04	1.773800E+02
-2.201219E-01	-8.682360E-04	1.778300E+02
-2.201219E-01	-8.683359E-04	1.782700E+02
-2.201219E-01	-8.683589E-04	1.787200E+02
-2.201219E-01	-8.684204E-04	1.795900E+02
-2.201219E-01	-8.684588E-04	1.800400E+02
-2.201296E-01	-8.685049E-04	1.804800E+02
-2.201296E-01	-8.685279E-04	1.809300E+02
-2.201219E-01	-8.685279E-04	1.813700E+02
-2.201219E-01	-8.685663E-04	1.818200E+02
-2.201219E-01	-8.686585E-04	1.822600E+02
-2.201219E-01	-8.687122E-04	1.827100E+02
-2.201219E-01	-8.687045E-04	1.831400E+02
-2.201219E-01	-8.687045E-04	1.835800E+02
-2.201219E-01	-8.687122E-04	1.840400E+02
-2.201219E-01	-8.687736E-04	1.844700E+02
-2.201219E-01	-8.687890E-04	1.849300E+02
-2.201219E-01	-8.688197E-04	1.853700E+02
-2.201219E-01	-8.688581E-04	1.858200E+02
-2.201219E-01	-8.688505E-04	1.862600E+02
-2.201219E-01	-8.688658E-04	1.867100E+02
-2.201142E-01	-8.689119E-04	1.871500E+02
-2.201142E-01	-8.689503E-04	1.875800E+02
-2.201219E-01	-8.689887E-04	1.880300E+02
-2.201296E-01	-8.690501E-04	1.884700E+02
-2.201219E-01	-8.691116E-04	1.893600E+02
-2.201296E-01	-8.691346E-04	1.898100E+02
-2.201296E-01	-8.691499E-04	1.902500E+02
-2.201296E-01	-8.691730E-04	1.907000E+02
-2.201296E-01	-8.692191E-04	1.911300E+02
-2.201296E-01	-8.692344E-04	1.915700E+02
-2.201296E-01	-8.692651E-04	1.920200E+02
-2.201296E-01	-8.692729E-04	1.924600E+02
-2.201296E-01	-8.693036E-04	1.929100E+02
-2.201219E-01	-8.693803E-04	1.933500E+02
-2.201219E-01	-8.693651E-04	1.938000E+02
-2.201296E-01	-8.693957E-04	1.942400E+02
-2.201219E-01	-8.694956E-04	1.946800E+02
-2.201296E-01	-8.694956E-04	1.951200E+02
-2.201296E-01	-8.695417E-04	1.955700E+02
-2.201296E-01	-8.695954E-04	1.960200E+02
-2.201296E-01	-8.695954E-04	1.964600E+02
-2.201296E-01	-8.696414E-04	1.969100E+02
-2.201219E-01	-8.696414E-04	1.973400E+02
-2.201296E-01	-8.696491E-04	1.977900E+02
-2.201219E-01	-8.696568E-04	1.982300E+02
-2.201219E-01	-8.694955E-04	1.986800E+02
-2.201142E-01	-8.696261E-04	1.995500E+02
-2.201142E-01	-8.696644E-04	2.000000E+02
-2.201142E-01	-8.697413E-04	2.004300E+02
-2.201219E-01	-8.697797E-04	2.008800E+02
-2.201142E-01	-8.697489E-04	2.013300E+02
-2.201142E-01	-8.697950E-04	2.017800E+02
-2.201219E-01	-8.698411E-04	2.022200E+02
-2.201219E-01	-8.698258E-04	2.026700E+02
-2.201142E-01	-8.698334E-04	2.031100E+02
-2.201219E-01	-8.698411E-04	2.035500E+02
-2.201219E-01	-8.699025E-04	2.039900E+02
-2.201219E-01	-8.699333E-04	2.044300E+02
-2.201142E-01	-8.699947E-04	2.048800E+02
-2.201219E-01	-8.700408E-04	2.053200E+02
-2.201219E-01	-8.700562E-04	2.057700E+02
-2.201219E-01	-8.701176E-04	2.062100E+02
-2.201219E-01	-8.701406E-04	2.066500E+02
-2.201142E-01	-8.701483E-04	2.071000E+02
-2.201219E-01	-8.701867E-04	2.075300E+02
-2.201219E-01	-8.701943E-04	2.079800E+02
-2.201219E-01	-8.701790E-04	2.084200E+02
-2.201142E-01	-8.701560E-04	2.088700E+02
-2.201142E-01	-8.702021E-04	2.097600E+02
-2.201219E-01	-8.702404E-04	2.102000E+02
-2.201219E-01	-8.702251E-04	2.106300E+02
-2.201142E-01	-8.702097E-04	2.110800E+02
-2.201219E-01	-8.702097E-04	2.115200E+02
-2.201219E-01	-8.702558E-04	2.119800E+02
-2.201219E-01	-8.702712E-04	2.124200E+02
-2.201219E-01	-8.702635E-04	2.128700E+02
-2.201219E-01	-8.702789E-04	2.133100E+02
-2.201219E-01	-8.702558E-04	2.137600E+02
-2.201142E-01	-8.702865E-04	2.142000E+02
-2.201142E-01	-8.702865E-04	2.146300E+02
-2.201219E-01	-8.703019E-04	2.150800E+02
-2.201219E-01	-8.703095E-04	2.155200E+02
-2.201219E-01	-8.703095E-04	2.159700E+02
-2.201219E-01	-8.703710E-04	2.164100E+02
-2.201219E-01	-8.704017E-04	2.168600E+02
-2.201219E-01	-8.703941E-04	2.173000E+02
-2.201219E-01	-8.703941E-04	2.177500E+02
-2.201142E-01	-8.703863E-04	2.181800E+02
-2.201296E-01	-8.706013E-04	2.186200E+02
-2.201296E-01	-8.706474E-04	2.195100E+02
-2.201296E-01	-8.706321E-04	2.199600E+02
-2.201219E-01	-8.706013E-04	2.204000E+02
-2.201219E-01	-8.706782E-04	2.208500E+02
-2.201296E-01	-8.706244E-04	2.212800E+02
-2.201296E-01	-8.706551E-04	2.217600E+02
-2.201296E-01	-8.706705E-04	2.222000E+02
-2.201296E-01	-8.707166E-04	2.226400E+02
-2.201296E-01	-8.707473E-04	2.230900E+02
-2.201296E-01	-8.708164E-04	2.235300E+02
-2.201219E-01	-8.708394E-04	2.239800E+02
-2.201296E-01	-8.708394E-04	2.244200E+02
-2.201296E-01	-8.708394E-04	2.248700E+02
-2.201296E-01	-8.708625E-04	2.253000E+02
-2.201296E-01	-8.709009E-04	2.257500E+02
-2.201296E-01	-8.708702E-04	2.261900E+02
-2.201296E-01	-8.709009E-04	2.266300E+02
-2.201296E-01	-8.708855E-04	2.270800E+02
-2.201296E-01	-8.708625E-04	2.275200E+02
-2.201296E-01	-8.708778E-04	2.279700E+02
-2.201296E-01	-8.708855E-04	2.284100E+02
-2.201219E-01	-8.707013E-04	2.288600E+02
-2.201296E-01	-8.706552E-04	2.297500E+02
-2.201296E-01	-8.706629E-04	2.301800E+02
-2.201219E-01	-8.706782E-04	2.306200E+02
-2.201296E-01	-8.706629E-04	2.310700E+02
-2.201296E-01	-8.706321E-04	2.315100E+02
-2.201296E-01	-8.706014E-04	2.319600E+02
-2.201296E-01	-8.706168E-04	2.324000E+02
-2.201296E-01	-8.705630E-04	2.328500E+02
-2.201296E-01	-8.706398E-04	2.332900E+02
-2.201296E-01	-8.706398E-04	2.337400E+02
-2.201296E-01	-8.705783E-04	2.341800E+02
-2.201219E-01	-8.706398E-04	2.346200E+02
-2.201296E-01	-8.706168E-04	2.350700E+02
-2.201296E-01	-8.706705E-04	2.355000E+02
-2.201296E-01	-8.706398E-04	2.359500E+02
-2.201296E-01	-8.706629E-04	2.363900E+02
-2.201296E-01	-8.706629E-04	2.368400E+02
-2.201296E-01	-8.706629E-04	2.372800E+02
-2.201296E-01	-8.706629E-04	2.377300E+02
-2.201296E-01	-8.706552E-04	2.381700E+02
-2.201219E-01	-8.708702E-04	2.386000E+02
-2.201219E-01	-8.708473E-04	2.394900E+02
-2.201219E-01	-8.708702E-04	2.399400E+02
-2.201219E-01	-8.708473E-04	2.403800E+02
-2.201219E-01	-8.708318E-04	2.408300E+02
-2.201296E-01	-8.708626E-04	2.412700E+02
-2.201219E-01	-8.708473E-04	2.417200E+02
-2.201296E-01	-8.708242E-04	2.421600E+02
-2.201219E-01	-8.707627E-04	2.425900E+02
-2.201219E-01	-8.707551E-04	2.430400E+02
-2.201219E-01	-8.708012E-04	2.434800E+02
-2.201219E-01	-8.708318E-04	2.439300E+02
-2.201219E-01	-8.707781E-04	2.443700E+02
-2.201219E-01	-8.708242E-04	2.448200E+02
-2.201219E-01	-8.708548E-04	2.452600E+02
-2.201219E-01	-8.708857E-04	2.457100E+02
-2.201219E-01	-8.709393E-04	2.461500E+02
-2.201219E-01	-8.709393E-04	2.465900E+02
-2.201219E-01	-8.709470E-04	2.470400E+02
-2.201219E-01	-8.709317E-04	2.474800E+02
-2.201219E-01	-8.709470E-04	2.479300E+02
-2.201219E-01	-8.709854E-04	2.483700E+02
-2.201296E-01	-8.708087E-04	2.488200E+02
-2.201296E-01	-8.707934E-04	2.497000E+02
-2.201296E-01	-8.707550E-04	2.501400E+02
-2.201296E-01	-8.708471E-04	2.505800E+02
-2.201296E-01	-8.708625E-04	2.510300E+02
-2.201296E-01	-8.707857E-04	2.514700E+02
-2.201296E-01	-8.707703E-04	2.519200E+02
-2.201296E-01	-8.707243E-04	2.523600E+02
-2.201296E-01	-8.707089E-04	2.528000E+02
-2.201373E-01	-8.706629E-04	2.532400E+02
-2.201296E-01	-8.706398E-04	2.537000E+02
-2.201296E-01	-8.706398E-04	2.541300E+02
-2.201296E-01	-8.705783E-04	2.545700E+02
-2.201296E-01	-8.705476E-04	2.550200E+02
-2.201296E-01	-8.704785E-04	2.554600E+02
-2.201296E-01	-8.703940E-04	2.559100E+02
-2.201373E-01	-8.703556E-04	2.563400E+02
-2.201373E-01	-8.703249E-04	2.567900E+02
-2.201373E-01	-8.703019E-04	2.572300E+02
-2.201296E-01	-8.702558E-04	2.576900E+02
-2.201373E-01	-8.702635E-04	2.581300E+02
-2.201219E-01	-8.704094E-04	2.585700E+02
-2.201219E-01	-8.703326E-04	2.594600E+02
-2.201219E-01	-8.703095E-04	2.599000E+02
-2.201219E-01	-8.702635E-04	2.603400E+02
-2.201219E-01	-8.702328E-04	2.607900E+02
-2.201219E-01	-8.702558E-04	2.612300E+02
-2.201219E-01	-8.702481E-04	2.616800E+02
-2.201219E-01	-8.701943E-04	2.621200E+02
-2.201142E-01	-8.702251E-04	2.625600E+02
-2.201219E-01	-8.702097E-04	2.630100E+02
-2.201219E-01	-8.702174E-04	2.634400E+02
-2.201219E-01	-8.701867E-04	2.638900E+02
-2.201219E-01	-8.701713E-04	2.643300E+02
-2.201296E-01	-8.701253E-04	2.647800E+02
-2.201219E-01	-8.700945E-04	2.652200E+02
-2.201219E-01	-8.700714E-04	2.656700E+02
-2.201296E-01	-8.700484E-04	2.661100E+02
-2.201219E-01	-8.700331E-04	2.665500E+02
-2.201219E-01	-8.700331E-04	2.670000E+02
-2.201296E-01	-8.700101E-04	2.674300E+02
-2.201219E-01	-8.699640E-04	2.678800E+02
-2.201219E-01	-8.700024E-04	2.683200E+02
-2.201219E-01	-8.699793E-04	2.687700E+02
-2.201219E-01	-8.699332E-04	2.696500E+02
-2.201142E-01	-8.699409E-04	2.701000E+02
-2.201219E-01	-8.699102E-04	2.705300E+02
-2.201219E-01	-8.699179E-04	2.709800E+02
-2.201219E-01	-8.699179E-04	2.714200E+02
-2.201219E-01	-8.698948E-04	2.718700E+02
-2.201219E-01	-8.698948E-04	2.723200E+02
-2.201219E-01	-8.698794E-04	2.727700E+02
-2.201219E-01	-8.698872E-04	2.732000E+02
-2.201219E-01	-8.698564E-04	2.736400E+02
-2.201219E-01	-8.698181E-04	2.740900E+02
-2.201219E-01	-8.697872E-04	2.745300E+02
-2.201219E-01	-8.697872E-04	2.749800E+02
-2.201219E-01	-8.697643E-04	2.754200E+02
-2.201219E-01	-8.697643E-04	2.758700E+02
-2.201219E-01	-8.697489E-04	2.763100E+02
-2.201219E-01	-8.697259E-04	2.767500E+02
-2.201296E-01	-8.697105E-04	2.771900E+02
-2.201219E-01	-8.697105E-04	2.776300E+02
-2.201219E-01	-8.696798E-04	2.780900E+02
-2.201296E-01	-8.696875E-04	2.785300E+02
-2.201219E-01	-8.696722E-04	2.794200E+02
-2.201219E-01	-8.696875E-04	2.798700E+02
-2.201219E-01	-8.696798E-04	2.803000E+02
-2.201219E-01	-8.696491E-04	2.807500E+02
-2.201296E-01	-8.695877E-04	2.811900E+02
-2.201219E-01	-8.695724E-04	2.816300E+02
-2.201219E-01	-8.695493E-04	2.820800E+02
-2.201219E-01	-8.695570E-04	2.825200E+02
-2.201219E-01	-8.695493E-04	2.829700E+02
-2.201219E-01	-8.695416E-04	2.834100E+02
-2.201219E-01	-8.695647E-04	2.838500E+02
-2.201219E-01	-8.695263E-04	2.842900E+02
-2.201219E-01	-8.694955E-04	2.847400E+02
-2.201142E-01	-8.694648E-04	2.851800E+02
-2.201219E-01	-8.694955E-04	2.856200E+02
-2.201142E-01	-8.694571E-04	2.860700E+02
-2.201219E-01	-8.694418E-04	2.865100E+02
-2.201219E-01	-8.694264E-04	2.869500E+02
-2.201219E-01	-8.694341E-04	2.873900E+02
-2.201219E-01	-8.694034E-04	2.878400E+02
-2.201142E-01	-8.693726E-04	2.882800E+02
-2.201219E-01	-8.691960E-04	2.887400E+02
-2.201142E-01	-8.691038E-04	2.896100E+02
-2.201142E-01	-8.690885E-04	2.900600E+02
-2.201142E-01	-8.690885E-04	2.904900E+02
-2.201219E-01	-8.690962E-04	2.909400E+02
-2.201219E-01	-8.690885E-04	2.913800E+02
-2.201219E-01	-8.690655E-04	2.918300E+02
-2.201219E-01	-8.690731E-04	2.922700E+02
-2.201219E-01	-8.690808E-04	2.927300E+02
-2.201142E-01	-8.690347E-04	2.931600E+02
-2.201219E-01	-8.690117E-04	2.936000E+02
-2.201219E-01	-8.690040E-04	2.940500E+02
-2.201219E-01	-8.689809E-04	2.944900E+02
-2.201142E-01	-8.689733E-04	2.949400E+02
-2.201142E-01	-8.689195E-04	2.953800E+02
-2.201142E-01	-8.688812E-04	2.958300E+02
-2.201142E-01	-8.689042E-04	2.962600E+02
-2.201142E-01	-8.689118E-04	2.967100E+02
-2.201219E-01	-8.688964E-04	2.971500E+02
-2.201219E-01	-8.688964E-04	2.975900E+02
-2.201219E-01	-8.689272E-04	2.980400E+02
-2.201219E-01	-8.689272E-04	2.984800E+02
-2.201142E-01	-8.688197E-04	2.993600E+02
-2.201219E-01	-8.687736E-04	2.998100E+02
-2.201219E-01	-8.687429E-04	3.002500E+02
-2.201219E-01	-8.687045E-04	3.007000E+02
-2.201219E-01	-8.687045E-04	3.011400E+02
-2.201142E-01	-8.686660E-04	3.016000E+02
-2.201219E-01	-8.686277E-04	3.020500E+02
-2.201142E-01	-8.686277E-04	3.024900E+02
-2.201219E-01	-8.685740E-04	3.029400E+02
-2.201142E-01	-8.685355E-04	3.033800E+02
-2.201142E-01	-8.685355E-04	3.038300E+02
-2.201219E-01	-8.685125E-04	3.042700E+02
-2.201219E-01	-8.685048E-04	3.047200E+02
-2.201219E-01	-8.684587E-04	3.051600E+02
-2.201142E-01	-8.684971E-04	3.056000E+02
-2.201219E-01	-8.685048E-04	3.060500E+02
-2.201219E-01	-8.684741E-04	3.064900E+02
-2.201142E-01	-8.684357E-04	3.069400E+02
-2.201219E-01	-8.684741E-04	3.073800E+02
-2.201219E-01	-8.684741E-04	3.078300E+02
-2.201219E-01	-8.684664E-04	3.082700E+02
-2.201219E-01	-8.684126E-04	3.087200E+02
-2.201142E-01	-8.684203E-04	3.096000E+02
-2.201219E-01	-8.684280E-04	3.100500E+02
-2.201142E-01	-8.684203E-04	3.104900E+02
-2.201142E-01	-8.684126E-04	3.109400E+02
-2.201219E-01	-8.684049E-04	3.113800E+02
-2.201219E-01	-8.684280E-04	3.118300E+02
-2.201142E-01	-8.683897E-04	3.122600E+02
-2.201142E-01	-8.683897E-04	3.127100E+02
-2.201142E-01	-8.683742E-04	3.131500E+02
-2.201219E-01	-8.683436E-04	3.135900E+02
-2.201219E-01	-8.683205E-04	3.140400E+02
-2.201219E-01	-8.683282E-04	3.144800E+02
-2.201142E-01	-8.683205E-04	3.149300E+02
-2.201142E-01	-8.682898E-04	3.153600E+02
-2.201219E-01	-8.683052E-04	3.158100E+02
-2.201219E-01	-8.682591E-04	3.162500E+02
-2.201219E-01	-8.682283E-04	3.167000E+02
-2.201142E-01	-8.682206E-04	3.171400E+02
-2.201219E-01	-8.681822E-04	3.175800E+02
-2.201219E-01	-8.681745E-04	3.180300E+02
-2.201219E-01	-8.683436E-04	3.184700E+02
-2.201142E-01	-8.683358E-04	3.193600E+02
-2.201142E-01	-8.683205E-04	3.198100E+02
-2.201219E-01	-8.683050E-04	3.202400E+02
-2.201219E-01	-8.682591E-04	3.206900E+02
-2.201142E-01	-8.682283E-04	3.211300E+02
-2.201142E-01	-8.681669E-04	3.215700E+02
-2.201219E-01	-8.681669E-04	3.220200E+02
-2.201142E-01	-8.681284E-04	3.224600E+02
-2.201142E-01	-8.680823E-04	3.229000E+02
-2.201219E-01	-8.680823E-04	3.233400E+02
-2.201219E-01	-8.680133E-04	3.237900E+02
-2.201219E-01	-8.679826E-04	3.242300E+02
-2.201142E-01	-8.679057E-04	3.246800E+02
-2.201142E-01	-8.679134E-04	3.251200E+02
-2.201142E-01	-8.678750E-04	3.255500E+02
-2.201219E-01	-8.678366E-04	3.260000E+02
-2.201219E-01	-8.678520E-04	3.264400E+02
-2.201142E-01	-8.678135E-04	3.268900E+02
-2.201142E-01	-8.677982E-04	3.273300E+02
-2.201219E-01	-8.677751E-04	3.277900E+02
-2.201142E-01	-8.677368E-04	3.282300E+02
-2.201219E-01	-8.675218E-04	3.286800E+02
-2.201142E-01	-8.674603E-04	3.295500E+02
-2.201219E-01	-8.674219E-04	3.300000E+02
-2.201219E-01	-8.673759E-04	3.304400E+02
-2.201219E-01	-8.673759E-04	3.308900E+02
-2.201219E-01	-8.673759E-04	3.313300E+02
-2.201219E-01	-8.673375E-04	3.317800E+02
-2.201219E-01	-8.673145E-04	3.322200E+02
-2.201142E-01	-8.673068E-04	3.326800E+02
-2.201142E-01	-8.672837E-04	3.331100E+02
-2.201142E-01	-8.672453E-04	3.335500E+02
-2.201142E-01	-8.672453E-04	3.340000E+02
-2.201142E-01	-8.672607E-04	3.344400E+02
-2.201142E-01	-8.672146E-04	3.348900E+02
-2.201219E-01	-8.672223E-04	3.353300E+02
-2.201219E-01	-8.672146E-04	3.357800E+02
-2.201142E-01	-8.671762E-04	3.362200E+02
-2.201142E-01	-8.671915E-04	3.366600E+02
-2.201219E-01	-8.671762E-04	3.371000E+02
-2.201219E-01	-8.671762E-04	3.375500E+02
-2.201142E-01	-8.671377E-04	3.380000E+02
-2.201219E-01	-8.670764E-04	3.384400E+02
-2.201219E-01	-8.669919E-04	3.388900E+02
-2.201219E-01	-8.668614E-04	3.397700E+02
-2.201219E-01	-8.668383E-04	3.402100E+02
-2.201219E-01	-8.668460E-04	3.406400E+02
-2.201219E-01	-8.668153E-04	3.410900E+02
-2.201219E-01	-8.667692E-04	3.415400E+02
-2.201219E-01	-8.667845E-04	3.419900E+02
-2.201219E-01	-8.667769E-04	3.424300E+02
-2.201142E-01	-8.667769E-04	3.428800E+02
-2.201219E-01	-8.668153E-04	3.433100E+02
-2.201219E-01	-8.667845E-04	3.437600E+02
-2.201219E-01	-8.667922E-04	3.442000E+02
-2.201219E-01	-8.667384E-04	3.446400E+02
-2.201219E-01	-8.667384E-04	3.450900E+02
-2.201219E-01	-8.667384E-04	3.455300E+02
-2.201219E-01	-8.667231E-04	3.459800E+02
-2.201219E-01	-8.667692E-04	3.464100E+02
-2.201219E-01	-8.667384E-04	3.468600E+02
-2.201219E-01	-8.667231E-04	3.473000E+02
-2.201219E-01	-8.666847E-04	3.477500E+02
-2.201142E-01	-8.666079E-04	3.481900E+02
-2.201219E-01	-8.666233E-04	3.486300E+02
-2.201219E-01	-8.665925E-04	3.495200E+02
-2.201142E-01	-8.665542E-04	3.499600E+02
-2.201219E-01	-8.665849E-04	3.504000E+02
-2.201142E-01	-8.665542E-04	3.508500E+02
-2.201142E-01	-8.664773E-04	3.512900E+02
-2.201219E-01	-8.664620E-04	3.517400E+02
-2.201142E-01	-8.663622E-04	3.521800E+02
-2.201142E-01	-8.663622E-04	3.526200E+02
-2.201219E-01	-8.662700E-04	3.530600E+02
-2.201219E-01	-8.662546E-04	3.535000E+02
-2.201219E-01	-8.662393E-04	3.539500E+02
-2.201219E-01	-8.662239E-04	3.543900E+02
-2.201142E-01	-8.661855E-04	3.548400E+02
-2.201219E-01	-8.660779E-04	3.552800E+02
-2.201219E-01	-8.661318E-04	3.557200E+02
-2.201219E-01	-8.660779E-04	3.561600E+02
-2.201219E-01	-8.660165E-04	3.566000E+02
-2.201219E-01	-8.660396E-04	3.570500E+02
-2.201219E-01	-8.660703E-04	3.574900E+02
-2.201219E-01	-8.660089E-04	3.579400E+02
-2.201142E-01	-8.659551E-04	3.583800E+02
-2.201219E-01	-8.658706E-04	3.588300E+02
-2.201296E-01	-8.658245E-04	3.597200E+02
-2.201296E-01	-8.658015E-04	3.601600E+02
-2.201296E-01	-8.657324E-04	3.606000E+02
-2.201296E-01	-8.657401E-04	3.610500E+02
-2.201219E-01	-8.657324E-04	3.614900E+02
-2.201219E-01	-8.657401E-04	3.619400E+02
-2.201219E-01	-8.656709E-04	3.623800E+02
-2.201296E-01	-8.656632E-04	3.628200E+02
-2.201219E-01	-8.655865E-04	3.632600E+02
-2.201219E-01	-8.655865E-04	3.637100E+02
-2.201219E-01	-8.655865E-04	3.641500E+02
-2.201219E-01	-8.655327E-04	3.645900E+02
-2.201219E-01	-8.655097E-04	3.650400E+02
-2.201296E-01	-8.655174E-04	3.654700E+02
-2.201296E-01	-8.654866E-04	3.659200E+02
-2.201296E-01	-8.655174E-04	3.663600E+02
-2.201296E-01	-8.655480E-04	3.668100E+02
-2.201296E-01	-8.654943E-04	3.672400E+02
-2.201296E-01	-8.654866E-04	3.677000E+02
-2.201219E-01	-8.655097E-04	3.681400E+02
-2.201219E-01	-8.656632E-04	3.685700E+02
-2.201219E-01	-8.656096E-04	3.694600E+02
-2.201219E-01	-8.655865E-04	3.699100E+02
-2.201219E-01	-8.655711E-04	3.703500E+02
-2.201219E-01	-8.655174E-04	3.708000E+02
-2.201142E-01	-8.654791E-04	3.712400E+02
-2.201142E-01	-8.655021E-04	3.716900E+02
-2.201219E-01	-8.654791E-04	3.721300E+02
-2.201219E-01	-8.654330E-04	3.725700E+02
-2.201219E-01	-8.653869E-04	3.730100E+02
-2.201219E-01	-8.653100E-04	3.734500E+02
-2.201142E-01	-8.653100E-04	3.739000E+02
-2.201219E-01	-8.652793E-04	3.743400E+02
-2.201142E-01	-8.652178E-04	3.747900E+02
-2.201219E-01	-8.651334E-04	3.752300E+02
-2.201219E-01	-8.650796E-04	3.756800E+02
-2.201219E-01	-8.650950E-04	3.761200E+02
-2.201219E-01	-8.650412E-04	3.765500E+02
-2.201219E-01	-8.650182E-04	3.770000E+02
-2.201219E-01	-8.649722E-04	3.774500E+02
-2.201219E-01	-8.649107E-04	3.779000E+02
-2.201219E-01	-8.649261E-04	3.783400E+02
-2.201219E-01	-8.648877E-04	3.787900E+02
-2.201219E-01	-8.648416E-04	3.796700E+02
-2.201219E-01	-8.648108E-04	3.801100E+02
-2.201219E-01	-8.647955E-04	3.805500E+02
-2.201142E-01	-8.648032E-04	3.810000E+02
-2.201219E-01	-8.647724E-04	3.814400E+02
-2.201142E-01	-8.647033E-04	3.819100E+02
-2.201219E-01	-8.647111E-04	3.823500E+02
-2.201142E-01	-8.646803E-04	3.828000E+02
-2.201219E-01	-8.646342E-04	3.832400E+02
-2.201219E-01	-8.646342E-04	3.836900E+02
-2.201219E-01	-8.646265E-04	3.841300E+02
-2.201219E-01	-8.645804E-04	3.845700E+02
-2.201219E-01	-8.645343E-04	3.850100E+02
-2.201142E-01	-8.644806E-04	3.854500E+02
-2.201142E-01	-8.644576E-04	3.859000E+02
-2.201142E-01	-8.644038E-04	3.863400E+02
-2.201219E-01	-8.643654E-04	3.867900E+02
-2.201219E-01	-8.643424E-04	3.872300E+02
-2.201219E-01	-8.643040E-04	3.876700E+02
-2.201219E-01	-8.643193E-04	3.881100E+02
-2.201219E-01	-8.641043E-04	3.885500E+02
-2.201142E-01	-8.640658E-04	3.894400E+02
-2.201219E-01	-8.640582E-04	3.898900E+02
-2.201219E-01	-8.640121E-04	3.903200E+02
-2.201219E-01	-8.639891E-04	3.907700E+02
-2.201142E-01	-8.639583E-04	3.912100E+02
-2.201219E-01	-8.639660E-04	3.916500E+02
-2.201219E-01	-8.639507E-04	3.921000E+02
-2.201219E-01	-8.638585E-04	3.925400E+02
-2.201219E-01	-8.638278E-04	3.929900E+02
-2.201142E-01	-8.638047E-04	3.934200E+02
-2.201142E-01	-8.637893E-04	3.938700E+02
-2.201219E-01	-8.637663E-04	3.943100E+02
-2.201142E-01	-8.637049E-04	3.947600E+02
-2.201219E-01	-8.637049E-04	3.952000E+02
-2.201219E-01	-8.636358E-04	3.956400E+02
-2.201219E-01	-8.636588E-04	3.960900E+02
-2.201296E-01	-8.636127E-04	3.965200E+02
-2.201219E-01	-8.635282E-04	3.969700E+02
-2.201219E-01	-8.634976E-04	3.974100E+02
-2.201296E-01	-8.634592E-04	3.978600E+02
-2.201219E-01	-8.633747E-04	3.983000E+02
-2.201219E-01	-8.633593E-04	3.987500E+02
-2.201219E-01	-8.633439E-04	3.996200E+02
-2.201219E-01	-8.632825E-04	4.000700E+02
-2.201219E-01	-8.632594E-04	4.005100E+02
-2.201219E-01	-8.631673E-04	4.009600E+02
-2.201219E-01	-8.631520E-04	4.014000E+02
-2.201219E-01	-8.631673E-04	4.018500E+02
-2.201219E-01	-8.631443E-04	4.022900E+02
-2.201219E-01	-8.631366E-04	4.027400E+02
-2.201219E-01	-8.630982E-04	4.031800E+02
-2.201219E-01	-8.630675E-04	4.036200E+02
-2.201219E-01	-8.630675E-04	4.040600E+02
-2.201219E-01	-8.630368E-04	4.045000E+02
-2.201219E-01	-8.630521E-04	4.049500E+02
-2.201296E-01	-8.630368E-04	4.053900E+02
-2.201219E-01	-8.630598E-04	4.058400E+02
-2.201219E-01	-8.630521E-04	4.062800E+02
-2.201296E-01	-8.630675E-04	4.067300E+02
-2.201219E-01	-8.630444E-04	4.071700E+02
-2.201142E-01	-8.630138E-04	4.076100E+02
-2.201219E-01	-8.630061E-04	4.080600E+02
-2.201219E-01	-8.631750E-04	4.085000E+02
-2.201219E-01	-8.632442E-04	4.093900E+02
-2.201142E-01	-8.632365E-04	4.098400E+02
-2.201219E-01	-8.631443E-04	4.102700E+02
-2.201219E-01	-8.631520E-04	4.107200E+02
-2.201219E-01	-8.631367E-04	4.111600E+02
-2.201219E-01	-8.631443E-04	4.116000E+02
-2.201219E-01	-8.631367E-04	4.120500E+02
-2.201219E-01	-8.631367E-04	4.124900E+02
-2.201219E-01	-8.631213E-04	4.129400E+02
-2.201219E-01	-8.630906E-04	4.133800E+02
-2.201219E-01	-8.630215E-04	4.138200E+02
-2.201219E-01	-8.630291E-04	4.142600E+02
-2.201219E-01	-8.629984E-04	4.147100E+02
-2.201219E-01	-8.629524E-04	4.151500E+02
-2.201219E-01	-8.628832E-04	4.155900E+02
-2.201142E-01	-8.628371E-04	4.160400E+02
-2.201219E-01	-8.627910E-04	4.164800E+02
-2.201219E-01	-8.627604E-04	4.169200E+02
-2.201219E-01	-8.627296E-04	4.173600E+02
-2.201142E-01	-8.626605E-04	4.178100E+02
-2.201219E-01	-8.626221E-04	4.182500E+02
-2.201219E-01	-8.625837E-04	4.187000E+02
-2.201296E-01	-8.624762E-04	4.195700E+02
-2.201219E-01	-8.623840E-04	4.200200E+02
-2.201219E-01	-8.623379E-04	4.204500E+02
-2.201219E-01	-8.623226E-04	4.209000E+02
-2.201219E-01	-8.622919E-04	4.213400E+02
-2.201219E-01	-8.622458E-04	4.217900E+02
-2.201219E-01	-8.622381E-04	4.222400E+02
-2.201219E-01	-8.622151E-04	4.226900E+02
-2.201219E-01	-8.621690E-04	4.231200E+02
-2.201219E-01	-8.621613E-04	4.235600E+02
-2.201296E-01	-8.621076E-04	4.240100E+02
-2.201219E-01	-8.620999E-04	4.244500E+02
-2.201219E-01	-8.620615E-04	4.249000E+02
-2.201219E-01	-8.620154E-04	4.253400E+02
-2.201142E-01	-8.619463E-04	4.257900E+02
-2.201219E-01	-8.619386E-04	4.262300E+02
-2.201219E-01	-8.618925E-04	4.266700E+02
-2.201219E-01	-8.618618E-04	4.271100E+02
-2.201219E-01	-8.618542E-04	4.275500E+02
-2.201219E-01	-8.618004E-04	4.280100E+02
-2.201219E-01	-8.617543E-04	4.284500E+02
-2.201219E-01	-8.615392E-04	4.289000E+02
-2.201219E-01	-8.614624E-04	4.297800E+02
-2.201142E-01	-8.614394E-04	4.302200E+02
-2.201142E-01	-8.614163E-04	4.306500E+02
-2.201219E-01	-8.613779E-04	4.311000E+02
-2.201142E-01	-8.613395E-04	4.315400E+02
-2.201219E-01	-8.613241E-04	4.320000E+02
-2.201219E-01	-8.613088E-04	4.324400E+02
-2.201219E-01	-8.612780E-04	4.328900E+02
-2.201219E-01	-8.612090E-04	4.333200E+02
-2.201219E-01	-8.612166E-04	4.337700E+02
-2.201219E-01	-8.612090E-04	4.342100E+02
-2.201142E-01	-8.611399E-04	4.346500E+02
-2.201142E-01	-8.611168E-04	4.351000E+02
-2.201142E-01	-8.611475E-04	4.355300E+02
-2.201142E-01	-8.610784E-04	4.359800E+02
-2.201219E-01	-8.611014E-04	4.364200E+02
-2.201219E-01	-8.610784E-04	4.368700E+02
-2.201219E-01	-8.610553E-04	4.373100E+02
-2.201219E-01	-8.610630E-04	4.377600E+02
-2.201142E-01	-8.610246E-04	4.382000E+02
-2.201219E-01	-8.609939E-04	4.386400E+02
-2.201219E-01	-8.608864E-04	4.395300E+02
-2.201219E-01	-8.608557E-04	4.399700E+02
-2.201219E-01	-8.608557E-04	4.404100E+02
-2.201142E-01	-8.608787E-04	4.408600E+02
-2.201219E-01	-8.609018E-04	4.413000E+02
-2.201219E-01	-8.608864E-04	4.417500E+02
-2.201142E-01	-8.608557E-04	4.421900E+02
-2.201219E-01	-8.607788E-04	4.426300E+02
-2.201142E-01	-8.607251E-04	4.430800E+02
-2.201142E-01	-8.606790E-04	4.435100E+02
-2.201219E-01	-8.606560E-04	4.439600E+02
-2.201142E-01	-8.606714E-04	4.444000E+02
-2.201219E-01	-8.606253E-04	4.448500E+02
-2.201219E-01	-8.605561E-04	4.452900E+02
-2.201142E-01	-8.605331E-04	4.457400E+02
-2.201142E-01	-8.605024E-04	4.461800E+02
-2.201219E-01	-8.605254E-04	4.466200E+02
-2.201219E-01	-8.604717E-04	4.470700E+02
-2.201219E-01	-8.604409E-04	4.475100E+02
-2.201219E-01	-8.604026E-04	4.479600E+02
-2.201219E-01	-8.602720E-04	4.484000E+02
-2.201296E-01	-8.603027E-04	4.488500E+02
-2.201296E-01	-8.601722E-04	4.497300E+02
-2.201373E-01	-8.601645E-04	4.501700E+02
-2.201296E-01	-8.601184E-04	4.506100E+02
-2.201296E-01	-8.601107E-04	4.510600E+02
-2.201296E-01	-8.600723E-04	4.515000E+02
-2.201219E-01	-8.600262E-04	4.519500E+02
-2.201296E-01	-8.600339E-04	4.523900E+02
-2.201219E-01	-8.599955E-04	4.528400E+02
-2.201219E-01	-8.599265E-04	4.532800E+02
-2.201296E-01	-8.599341E-04	4.537300E+02
-2.201219E-01	-8.598419E-04	4.541600E+02
-2.201296E-01	-8.598496E-04	4.546000E+02
-2.201296E-01	-8.598727E-04	4.550500E+02
-2.201296E-01	-8.598727E-04	4.554900E+02
-2.201219E-01	-8.598650E-04	4.559400E+02
-2.201296E-01	-8.598419E-04	4.563800E+02
-2.201296E-01	-8.598650E-04	4.568300E+02
-2.201296E-01	-8.597728E-04	4.572700E+02
-2.201219E-01	-8.597114E-04	4.577200E+02
-2.201296E-01	-8.597882E-04	4.581600E+02
-2.201219E-01	-8.599724E-04	4.586000E+02
-2.201219E-01	-8.599801E-04	4.594800E+02
-2.201219E-01	-8.599955E-04	4.599300E+02
-2.201219E-01	-8.599341E-04	4.603700E+02
-2.201142E-01	-8.598957E-04	4.608200E+02
-2.201219E-01	-8.599724E-04	4.612600E+02
-2.201219E-01	-8.598572E-04	4.617300E+02
-2.201219E-01	-8.598035E-04	4.621700E+02
-2.201219E-01	-8.597497E-04	4.626100E+02
-2.201219E-01	-8.596653E-04	4.630600E+02
-2.201219E-01	-8.596653E-04	4.635000E+02
-2.201219E-01	-8.596577E-04	4.639600E+02
-2.201219E-01	-8.596577E-04	4.644000E+02
-2.201219E-01	-8.596346E-04	4.648500E+02
-2.201219E-01	-8.595347E-04	4.652800E+02
-2.201219E-01	-8.595577E-04	4.657300E+02
-2.201219E-01	-8.595040E-04	4.661700E+02
-2.201142E-01	-8.595117E-04	4.666100E+02
-2.201219E-01	-8.594656E-04	4.670500E+02
-2.201142E-01	-8.593888E-04	4.674900E+02
-2.201219E-01	-8.593274E-04	4.679400E+02
-2.201219E-01	-8.592582E-04	4.683800E+02
-2.201219E-01	-8.590355E-04	4.688300E+02
-2.201219E-01	-8.588589E-04	4.697300E+02
-2.201219E-01	-8.588666E-04	4.701600E+02
-2.201219E-01	-8.587591E-04	4.706000E+02
-2.201219E-01	-8.587668E-04	4.710500E+02
-2.201296E-01	-8.587514E-04	4.714900E+02
-2.201219E-01	-8.586746E-04	4.719300E+02
-2.201219E-01	-8.586439E-04	4.723700E+02
-2.201142E-01	-8.585901E-04	4.728200E+02
-2.201142E-01	-8.585441E-04	4.732600E+02
-2.201142E-01	-8.584826E-04	4.737100E+02
-2.201219E-01	-8.583827E-04	4.741500E+02
-2.201219E-01	-8.583674E-04	4.745900E+02
-2.201219E-01	-8.583290E-04	4.750300E+02
-2.201219E-01	-8.582830E-04	4.754700E+02
-2.201219E-01	-8.582216E-04	4.759200E+02
-2.201142E-01	-8.581908E-04	4.763600E+02
-2.201219E-01	-8.582369E-04	4.768100E+02
-2.201219E-01	-8.581677E-04	4.772500E+02
-2.201219E-01	-8.581524E-04	4.777000E+02
-2.201219E-01	-8.581370E-04	4.781400E+02
-2.201142E-01	-8.582984E-04	4.785700E+02
-2.201142E-01	-8.582216E-04	4.794600E+02
-2.201142E-01	-8.582369E-04	4.799100E+02
-2.201142E-01	-8.582139E-04	4.803500E+02
-2.201142E-01	-8.582446E-04	4.808000E+02
-2.201142E-01	-8.582446E-04	4.812400E+02
-2.201142E-01	-8.582830E-04	4.816900E+02
-2.201142E-01	-8.582600E-04	4.821300E+02
-2.201142E-01	-8.582446E-04	4.825700E+02
-2.201142E-01	-8.582369E-04	4.830200E+02
-2.201142E-01	-8.582292E-04	4.834600E+02
-2.201142E-01	-8.582369E-04	4.839100E+02
-2.201142E-01	-8.581447E-04	4.843500E+02
-2.201142E-01	-8.579220E-04	4.848000E+02
-2.201142E-01	-8.575150E-04	4.852400E+02
-2.201066E-01	-8.574382E-04	4.856800E+02
-2.201142E-01	-8.574228E-04	4.861200E+02
-2.201142E-01	-8.574228E-04	4.865600E+02
-2.201142E-01	-8.573921E-04	4.870100E+02
-2.201142E-01	-8.573691E-04	4.874500E+02
-2.201142E-01	-8.572769E-04	4.879000E+02
-2.201142E-01	-8.572232E-04	4.883400E+02
-2.201296E-01	-8.572001E-04	4.887800E+02
-2.201296E-01	-8.571770E-04	4.896800E+02
-2.201296E-01	-8.571386E-04	4.901200E+02
-2.201296E-01	-8.570464E-04	4.905600E+02
-2.201296E-01	-8.570158E-04	4.910100E+02
-2.201296E-01	-8.569927E-04	4.914500E+02
-2.201296E-01	-8.569850E-04	4.919000E+02
-2.201296E-01	-8.569620E-04	4.923300E+02
-2.201296E-01	-8.569697E-04	4.927800E+02
-2.201296E-01	-8.569466E-04	4.932200E+02
-2.201219E-01	-8.569159E-04	4.936700E+02
-2.201219E-01	-8.568852E-04	4.941100E+02
-2.201296E-01	-8.568852E-04	4.945500E+02
-2.201296E-01	-8.568469E-04	4.950000E+02
-2.201296E-01	-8.568008E-04	4.954400E+02
-2.201296E-01	-8.567854E-04	4.958900E+02
-2.201296E-01	-8.567470E-04	4.963200E+02
-2.201296E-01	-8.567086E-04	4.967700E+02
-2.201296E-01	-8.566932E-04	4.972100E+02
-2.201296E-01	-8.566087E-04	4.976500E+02
-2.201296E-01	-8.565549E-04	4.981000E+02
-2.201142E-01	-8.562785E-04	4.985400E+02
-2.201219E-01	-8.562632E-04	4.994300E+02
-2.201142E-01	-8.562785E-04	4.998800E+02
-2.201219E-01	-8.562939E-04	5.003100E+02
-2.201142E-01	-8.562478E-04	5.007700E+02
-2.201219E-01	-8.561403E-04	5.012100E+02
-2.201219E-01	-8.561095E-04	5.016400E+02
-2.201219E-01	-8.560328E-04	5.020900E+02
-2.201219E-01	-8.559713E-04	5.025300E+02
-2.201219E-01	-8.559636E-04	5.029800E+02
-2.201219E-01	-8.559252E-04	5.034200E+02
-2.201219E-01	-8.558714E-04	5.038700E+02
-2.201219E-01	-8.558101E-04	5.043100E+02
-2.201219E-01	-8.558101E-04	5.047600E+02
-2.201219E-01	-8.557563E-04	5.052000E+02
-2.201219E-01	-8.556718E-04	5.056400E+02
-2.201142E-01	-8.556027E-04	5.060800E+02
-2.201219E-01	-8.555719E-04	5.065200E+02
-2.201219E-01	-8.555797E-04	5.069700E+02
-2.201219E-01	-8.555797E-04	5.074100E+02
-2.201219E-01	-8.554952E-04	5.078600E+02
-2.201219E-01	-8.554491E-04	5.083000E+02
-2.201219E-01	-8.554567E-04	5.087500E+02
-2.201219E-01	-8.553186E-04	5.096300E+02
-2.201219E-01	-8.552955E-04	5.100800E+02
-2.201142E-01	-8.552494E-04	5.105200E+02
-2.201219E-01	-8.552340E-04	5.109700E+02
-2.201142E-01	-8.551956E-04	5.114100E+02
-2.201219E-01	-8.551650E-04	5.118600E+02
-2.201142E-01	-8.551495E-04	5.123000E+02
-2.201219E-01	-8.551803E-04	5.127500E+02
-2.201219E-01	-8.551265E-04	5.131900E+02
-2.201219E-01	-8.551265E-04	5.136200E+02
-2.201142E-01	-8.551265E-04	5.140700E+02
-2.201219E-01	-8.551111E-04	5.145100E+02
-2.201219E-01	-8.550805E-04	5.149600E+02
-2.201219E-01	-8.550421E-04	5.154100E+02
-2.201219E-01	-8.549960E-04	5.158600E+02
-2.201219E-01	-8.549883E-04	5.162900E+02
-2.201219E-01	-8.549576E-04	5.167400E+02
-2.201219E-01	-8.549269E-04	5.171700E+02
-2.201219E-01	-8.548578E-04	5.176100E+02
-2.201142E-01	-8.548500E-04	5.180600E+02
-2.201219E-01	-8.550191E-04	5.185000E+02
-2.201219E-01	-8.550498E-04	5.193900E+02
-2.201219E-01	-8.550498E-04	5.198400E+02
-2.201219E-01	-8.549654E-04	5.202700E+02
-2.201142E-01	-8.549500E-04	5.207200E+02
-2.201142E-01	-8.549269E-04	5.211700E+02
-2.201219E-01	-8.549039E-04	5.216100E+02
-2.201142E-01	-8.548578E-04	5.220600E+02
-2.201219E-01	-8.548271E-04	5.225000E+02
-2.201219E-01	-8.548194E-04	5.229500E+02
-2.201219E-01	-8.548271E-04	5.233900E+02
-2.201219E-01	-8.547580E-04	5.238300E+02
-2.201219E-01	-8.547656E-04	5.242700E+02
-2.201219E-01	-8.547502E-04	5.247200E+02
-2.201142E-01	-8.546505E-04	5.251600E+02
-2.201219E-01	-8.546735E-04	5.256000E+02
-2.201219E-01	-8.546428E-04	5.260500E+02
-2.201219E-01	-8.546658E-04	5.264900E+02
-2.201142E-01	-8.546351E-04	5.269300E+02
-2.201142E-01	-8.546044E-04	5.273700E+02
-2.201219E-01	-8.545736E-04	5.278200E+02
-2.201219E-01	-8.545583E-04	5.282600E+02
-2.201219E-01	-8.545736E-04	5.287200E+02
-2.201219E-01	-8.544969E-04	5.295900E+02
-2.201142E-01	-8.545200E-04	5.300400E+02
-2.201219E-01	-8.544201E-04	5.304700E+02
-2.201219E-01	-8.543663E-04	5.309200E+02
-2.201219E-01	-8.543125E-04	5.313600E+02
-2.201219E-01	-8.542896E-04	5.318100E+02
-2.201219E-01	-8.542435E-04	5.322500E+02
-2.201219E-01	-8.541896E-04	5.327100E+02
-2.201219E-01	-8.541282E-04	5.331400E+02
-2.201219E-01	-8.540898E-04	5.335800E+02
-2.201219E-01	-8.540206E-04	5.340300E+02
-2.201219E-01	-8.539900E-04	5.344700E+02
-2.201219E-01	-8.539515E-04	5.349200E+02
-2.201219E-01	-8.538210E-04	5.353600E+02
-2.201219E-01	-8.537903E-04	5.358100E+02
-2.201219E-01	-8.538210E-04	5.362400E+02
-2.201219E-01	-8.537826E-04	5.366900E+02
-2.201142E-01	-8.537442E-04	5.371300E+02
-2.201142E-01	-8.537826E-04	5.375700E+02
-2.201219E-01	-8.537520E-04	5.380200E+02
-2.201142E-01	-8.535521E-04	5.384600E+02
-2.201142E-01	-8.535291E-04	5.393400E+02
-2.201219E-01	-8.534677E-04	5.397900E+02
-2.201219E-01	-8.534830E-04	5.402300E+02
-2.201219E-01	-8.534907E-04	5.406800E+02
-2.201219E-01	-8.534216E-04	5.411200E+02
-2.201219E-01	-8.533295E-04	5.415900E+02
-2.201142E-01	-8.533525E-04	5.420300E+02
-2.201142E-01	-8.532756E-04	5.424700E+02
-2.201219E-01	-8.531989E-04	5.429200E+02
-2.201142E-01	-8.531912E-04	5.433600E+02
-2.201219E-01	-8.531298E-04	5.438100E+02
-2.201219E-01	-8.530530E-04	5.442500E+02
-2.201219E-01	-8.530683E-04	5.447000E+02
-2.201219E-01	-8.530222E-04	5.451400E+02
-2.201142E-01	-8.529685E-04	5.455800E+02
-2.201219E-01	-8.529608E-04	5.460300E+02
-2.201142E-01	-8.528610E-04	5.464700E+02
-2.201142E-01	-8.528226E-04	5.469200E+02
-2.201142E-01	-8.528226E-04	5.473600E+02
-2.201142E-01	-8.527611E-04	5.478100E+02
-2.201142E-01	-8.526152E-04	5.482500E+02
-2.201219E-01	-8.526766E-04	5.486900E+02
-2.201142E-01	-8.525692E-04	5.495700E+02
-2.201219E-01	-8.525538E-04	5.500200E+02
-2.201219E-01	-8.526075E-04	5.504600E+02
-2.201219E-01	-8.525614E-04	5.509100E+02
-2.201219E-01	-8.525153E-04	5.513400E+02
-2.201142E-01	-8.525153E-04	5.517900E+02
-2.201219E-01	-8.523925E-04	5.522300E+02
-2.201142E-01	-8.523234E-04	5.526800E+02
-2.201219E-01	-8.523695E-04	5.531200E+02
-2.201219E-01	-8.522696E-04	5.535600E+02
-2.201219E-01	-8.522696E-04	5.540100E+02
-2.201142E-01	-8.523234E-04	5.544500E+02
-2.201142E-01	-8.522620E-04	5.549000E+02
-2.201219E-01	-8.523387E-04	5.553400E+02
-2.201142E-01	-8.523157E-04	5.557800E+02
-2.201142E-01	-8.521237E-04	5.562200E+02
-2.201219E-01	-8.520930E-04	5.566700E+02
-2.201219E-01	-8.522082E-04	5.571100E+02
-2.201142E-01	-8.521929E-04	5.575500E+02
-2.201219E-01	-8.521852E-04	5.580000E+02
-2.201142E-01	-8.521545E-04	5.584400E+02
-2.201219E-01	-8.523618E-04	5.588900E+02
-2.201142E-01	-8.523081E-04	5.597800E+02
-2.201142E-01	-8.523081E-04	5.602200E+02
-2.201219E-01	-8.522620E-04	5.606600E+02
-2.201142E-01	-8.522159E-04	5.611100E+02
-2.201142E-01	-8.522773E-04	5.615400E+02
-2.201142E-01	-8.521776E-04	5.619900E+02
-2.201142E-01	-8.522006E-04	5.624300E+02
-2.201219E-01	-8.521468E-04	5.628800E+02
-2.201142E-01	-8.520469E-04	5.633200E+02
-2.201219E-01	-8.520162E-04	5.637700E+02
-2.201219E-01	-8.521084E-04	5.642100E+02
-2.201142E-01	-8.520316E-04	5.646500E+02
-2.201142E-01	-8.519933E-04	5.650900E+02
-2.201142E-01	-8.518857E-04	5.655300E+02
-2.201142E-01	-8.518396E-04	5.659800E+02
-2.201066E-01	-8.518396E-04	5.664200E+02
-2.201142E-01	-8.517935E-04	5.668700E+02
-2.201219E-01	-8.518550E-04	5.673100E+02
-2.201219E-01	-8.517168E-04	5.677600E+02
-2.201219E-01	-8.517474E-04	5.682000E+02
-2.201296E-01	-8.516629E-04	5.686400E+02
-2.201219E-01	-8.516246E-04	5.695200E+02
-2.201296E-01	-8.516860E-04	5.699700E+02
-2.201219E-01	-8.515324E-04	5.704100E+02
-2.201219E-01	-8.515017E-04	5.708600E+02
-2.201296E-01	-8.514556E-04	5.712900E+02
-2.201296E-01	-8.513865E-04	5.717400E+02
-2.201296E-01	-8.514172E-04	5.721800E+02
-2.201296E-01	-8.514326E-04	5.726200E+02
-2.201219E-01	-8.513174E-04	5.730700E+02
-2.201296E-01	-8.512713E-04	5.735100E+02
-2.201219E-01	-8.512560E-04	5.739600E+02
-2.201219E-01	-8.512789E-04	5.744000E+02
-2.201219E-01	-8.511868E-04	5.748400E+02
-2.201296E-01	-8.512943E-04	5.752800E+02
-2.201296E-01	-8.512560E-04	5.757300E+02
-2.201219E-01	-8.511100E-04	5.761700E+02
-2.201219E-01	-8.511868E-04	5.766100E+02
-2.201296E-01	-8.511638E-04	5.770600E+02
-2.201296E-01	-8.511254E-04	5.775000E+02
-2.201296E-01	-8.511484E-04	5.779500E+02
-2.201296E-01	-8.510716E-04	5.783900E+02
-2.201142E-01	-8.509334E-04	5.788400E+02
-2.201142E-01	-8.508412E-04	5.797200E+02
-2.201219E-01	-8.508642E-04	5.801600E+02
-2.201219E-01	-8.507567E-04	5.806000E+02
-2.201219E-01	-8.508258E-04	5.810500E+02
-2.201219E-01	-8.507184E-04	5.814800E+02
-2.201219E-01	-8.507030E-04	5.819400E+02
-2.201219E-01	-8.508028E-04	5.823700E+02
-2.201142E-01	-8.507797E-04	5.828200E+02
-2.201219E-01	-8.506185E-04	5.832700E+02
-2.201066E-01	-8.506185E-04	5.837200E+02
-2.201142E-01	-8.507030E-04	5.841600E+02
-2.201219E-01	-8.506723E-04	5.845900E+02
-2.201219E-01	-8.506876E-04	5.850400E+02
-2.201219E-01	-8.506262E-04	5.854800E+02
-2.201142E-01	-8.505494E-04	5.859300E+02
-2.201219E-01	-8.505570E-04	5.863700E+02
-2.201219E-01	-8.505494E-04	5.868200E+02
-2.201219E-01	-8.505341E-04	5.872500E+02
-2.201219E-01	-8.504726E-04	5.877000E+02
-2.201219E-01	-8.504726E-04	5.881400E+02
-2.201219E-01	-8.503727E-04	5.885800E+02
-2.201142E-01	-8.503420E-04	5.894600E+02
-2.201142E-01	-8.503420E-04	5.899100E+02
-2.201219E-01	-8.503420E-04	5.903500E+02
-2.201219E-01	-8.503036E-04	5.908000E+02
-2.201219E-01	-8.502268E-04	5.912300E+02
-2.201142E-01	-8.501807E-04	5.916800E+02
-2.201219E-01	-8.501193E-04	5.921200E+02
-2.201219E-01	-8.500810E-04	5.925600E+02
-2.201142E-01	-8.500501E-04	5.930200E+02
-2.201219E-01	-8.500118E-04	5.934500E+02
-2.201219E-01	-8.499810E-04	5.939000E+02
-2.201219E-01	-8.499273E-04	5.943400E+02
-2.201142E-01	-8.499196E-04	5.947900E+02
-2.201219E-01	-8.497967E-04	5.952300E+02
-2.201219E-01	-8.497429E-04	5.956800E+02
-2.201142E-01	-8.497890E-04	5.961200E+02
-2.201142E-01	-8.497660E-04	5.965500E+02
-2.201142E-01	-8.498121E-04	5.970000E+02
-2.201142E-01	-8.497200E-04	5.974400E+02
-2.201219E-01	-8.496739E-04	5.978900E+02
-2.201219E-01	-8.496278E-04	5.983300E+02
-2.201219E-01	-8.497738E-04	5.987800E+02
-2.201219E-01	-8.497046E-04	5.996500E+02
-2.201296E-01	-8.496893E-04	6.001000E+02
