CORRW ASCII
  CorrWare for Windows: Version 3.5f
  Potentiostatic	[-0.2 Ref,1 Hour][default]	IV_-200mV_1.cor
  Date: 11-05-2019    Time: 01:03:31
   
   
  Open Circuit Potential (V): 0.0021
  Begin Information:          Cell Information
    Surface Area:             1
    Density:                  0
    Weight:                   0
    Polarity:                 0
    PolarityI:                0
    Corrosion Unit Type:      0
    Reference Type:           0
    Reference Potential:      0
    User-Defined Potential:   0
    Stern-Geary:              26
  End Information:            Cell Information
  Begin Pstat:                1287
    Pstat Title:              Instrument #1
    Booster Type:             0
    Booster Name:             None
    Current Range:            0
    Current Limit:            0
    Current LimitType:        0
    Sweep Type:               0
    Use Error Beep:           1
    Auxilary Type:            0
    iR Comp. Type:            0
    iR Ohms:                  0
    iR Time:                  27
    iR Ratio:                 255
    LP Filter Type:           2
    Drift Correction:         1
    Null Correction:          0
    Pstat Bandwidth Type:     2
    Gstat Bandwidth Type:     2
    External Input:           0
    SafetyMinV:               0
    SafetyMaxV:               10
    SafetyMinI:               0
    SafetyMaxI:               4
    SafetyMinQ:               0
    SafetyMaxQ:               1000
    SafetyMinT:               0
    SafetyMaxT:               50
    SafetyChT:                0
    SafetyMinVUse:            0
    SafetyMaxVUse:            0
    SafetyMinIUse:            0
    SafetyMaxIUse:            0
    SafetyMinQUse:            0
    SafetyMaxQUse:            0
    SafetyMinTUse:            0
    SafetyMaxTUse:            0
  End Pstat:                  1287
  Begin Experiment:           Potentiostatic	[-0.2 Ref,1 Hour][default]	IV_-200mV_1.cor
    Data File:                Z:\191101_Amezawa\fr_XAS\TPB2\100% O2\Electrochem\IV_-200mV_1.cor
    Data Append:              0
    Comment Lines:            0
    Potential:                -0.2
    Potential Type:           1
    Total Time:               1
    Time Units:               2
    Time Marker:              -1
    Measure Rate Type:        1
    Measure Rate #1:          2000
    Measure Rate #2:          600
    Measure Rate #3:          0.1
    Measure Rate #4:          2
    Use Threshold:            0
    Threshold I_Min:          -15
    Threshold I_Max:          15
    Threshold Delta:          5
    Threshold Time:           60
    Copy AuxV:                0
    Axes Type:                1
    Use Custom Pstat:         0
  End Experiment:             Potentiostatic	[-0.2 Ref,1 Hour][default]	IV_-200mV_1.cor
  Data Points:                147
  E(Volts)	I(A/cm2)	T(Seconds)
End Comments
-2.000977E-01	-6.100784E-04	0.000000E+00
-2.000977E-01	-6.038731E-04	9.000000E-01
-2.000984E-01	-6.035198E-04	1.330000E+00
-2.000992E-01	-6.039038E-04	1.770000E+00
-2.000992E-01	-6.047947E-04	2.220000E+00
-2.001000E-01	-6.059543E-04	2.660000E+00
-2.000992E-01	-6.072906E-04	3.100000E+00
-2.001000E-01	-6.088266E-04	3.540000E+00
-2.000984E-01	-6.104778E-04	3.990000E+00
-2.000992E-01	-6.121212E-04	4.430000E+00
-2.000992E-01	-6.138568E-04	4.880000E+00
-2.000977E-01	-6.156540E-04	5.320000E+00
-2.000992E-01	-6.174894E-04	5.760000E+00
-2.000992E-01	-6.193249E-04	6.210000E+00
-2.000992E-01	-6.211451E-04	6.640000E+00
-2.000969E-01	-6.229959E-04	7.090000E+00
-2.000977E-01	-6.248083E-04	7.530000E+00
-2.000977E-01	-6.267283E-04	7.980000E+00
-2.000992E-01	-6.286482E-04	8.430000E+00
-2.000977E-01	-6.305145E-04	8.880000E+00
-2.000969E-01	-6.322808E-04	9.320000E+00
-2.000984E-01	-6.339627E-04	9.750000E+00
-2.000961E-01	-6.375492E-04	1.064000E+01
-2.000977E-01	-6.393692E-04	1.109000E+01
-2.000984E-01	-6.411587E-04	1.153000E+01
-2.000977E-01	-6.429174E-04	1.198000E+01
-2.000969E-01	-6.445839E-04	1.242000E+01
-2.000969E-01	-6.462657E-04	1.287000E+01
-2.000977E-01	-6.479860E-04	1.331000E+01
-2.000984E-01	-6.495912E-04	1.375000E+01
-2.000969E-01	-6.512193E-04	1.420000E+01
-2.000969E-01	-6.527859E-04	1.464000E+01
-2.000977E-01	-6.543680E-04	1.509000E+01
-2.000992E-01	-6.559501E-04	1.553000E+01
-2.000977E-01	-6.575013E-04	1.598000E+01
-2.000977E-01	-6.590220E-04	1.641000E+01
-2.000977E-01	-6.604351E-04	1.686000E+01
-2.000984E-01	-6.619403E-04	1.730000E+01
-2.001000E-01	-6.633534E-04	1.774000E+01
-2.000984E-01	-6.647434E-04	1.819000E+01
-2.000992E-01	-6.662026E-04	1.863000E+01
-2.000977E-01	-6.675773E-04	1.908000E+01
-2.000977E-01	-6.689290E-04	1.952000E+01
-2.000984E-01	-6.702806E-04	1.997000E+01
-2.000984E-01	-6.728456E-04	2.085000E+01
-2.000992E-01	-6.741282E-04	2.130000E+01
-2.001000E-01	-6.753877E-04	2.174000E+01
-2.000984E-01	-6.766472E-04	2.219000E+01
-2.000992E-01	-6.778222E-04	2.263000E+01
-2.000992E-01	-6.790663E-04	2.308000E+01
-2.000992E-01	-6.802721E-04	2.352000E+01
-2.000992E-01	-6.812628E-04	2.397000E+01
-2.000992E-01	-6.825376E-04	2.441000E+01
-2.000992E-01	-6.836895E-04	2.485000E+01
-2.000977E-01	-6.848493E-04	2.530000E+01
-2.000984E-01	-6.859705E-04	2.574000E+01
-2.000992E-01	-6.870687E-04	2.619000E+01
-2.001000E-01	-6.880748E-04	2.663000E+01
-2.000992E-01	-6.891346E-04	2.708000E+01
-2.001007E-01	-6.901406E-04	2.751000E+01
-2.000992E-01	-6.911544E-04	2.796000E+01
-2.001000E-01	-6.920222E-04	2.839000E+01
-2.000984E-01	-6.930129E-04	2.884000E+01
-2.000992E-01	-6.940036E-04	2.929000E+01
-2.000984E-01	-6.948561E-04	2.973000E+01
-2.000977E-01	-6.966608E-04	3.061000E+01
-2.000977E-01	-6.976131E-04	3.106000E+01
-2.000984E-01	-6.984349E-04	3.149000E+01
-2.000977E-01	-6.993487E-04	3.194000E+01
-2.000977E-01	-7.002319E-04	3.238000E+01
-2.000977E-01	-7.011228E-04	3.283000E+01
-2.000961E-01	-7.019906E-04	3.328000E+01
-2.000977E-01	-7.029275E-04	3.372000E+01
-2.000977E-01	-7.037724E-04	3.417000E+01
-2.000984E-01	-7.045711E-04	3.461000E+01
-2.000961E-01	-7.053390E-04	3.505000E+01
-2.000969E-01	-7.061531E-04	3.549000E+01
-2.000969E-01	-7.069595E-04	3.594000E+01
-2.000977E-01	-7.076737E-04	3.638000E+01
-2.000961E-01	-7.084570E-04	3.682000E+01
-2.000969E-01	-7.092020E-04	3.727000E+01
-2.000984E-01	-7.100314E-04	3.771000E+01
-2.000969E-01	-7.107073E-04	3.815000E+01
-2.000977E-01	-7.114368E-04	3.859000E+01
-2.000977E-01	-7.121587E-04	3.904000E+01
-2.000977E-01	-7.128268E-04	3.948000E+01
-2.000984E-01	-7.136717E-04	3.993000E+01
-2.000977E-01	-7.150924E-04	4.081000E+01
-2.000984E-01	-7.157452E-04	4.126000E+01
-2.001000E-01	-7.163903E-04	4.169000E+01
-2.000977E-01	-7.170354E-04	4.214000E+01
-2.001000E-01	-7.176575E-04	4.258000E+01
-2.000984E-01	-7.183103E-04	4.303000E+01
-2.000984E-01	-7.189938E-04	4.348000E+01
-2.000977E-01	-7.196389E-04	4.393000E+01
-2.000969E-01	-7.202072E-04	4.436000E+01
-2.000992E-01	-7.207832E-04	4.480000E+01
-2.000992E-01	-7.214129E-04	4.525000E+01
-2.001000E-01	-7.219659E-04	4.569000E+01
-2.000969E-01	-7.225496E-04	4.614000E+01
-2.000992E-01	-7.231869E-04	4.658000E+01
-2.000992E-01	-7.237553E-04	4.703000E+01
-2.001007E-01	-7.243467E-04	4.746000E+01
-2.000992E-01	-7.248382E-04	4.791000E+01
-2.000984E-01	-7.253988E-04	4.835000E+01
-2.001000E-01	-7.258826E-04	4.879000E+01
-2.000969E-01	-7.263741E-04	4.924000E+01
-2.000984E-01	-7.268657E-04	4.968000E+01
-2.000984E-01	-7.279101E-04	5.056000E+01
-2.000984E-01	-7.284016E-04	5.101000E+01
-2.000992E-01	-7.289545E-04	5.145000E+01
-2.001000E-01	-7.294537E-04	5.190000E+01
-2.000984E-01	-7.299376E-04	5.234000E+01
-2.000984E-01	-7.303907E-04	5.278000E+01
-2.000977E-01	-7.308591E-04	5.323000E+01
-2.001000E-01	-7.313584E-04	5.367000E+01
-2.000984E-01	-7.317961E-04	5.411000E+01
-2.000992E-01	-7.322953E-04	5.455000E+01
-2.001000E-01	-7.327638E-04	5.500000E+01
-2.000992E-01	-7.331938E-04	5.544000E+01
-2.000977E-01	-7.336469E-04	5.589000E+01
-2.000984E-01	-7.340847E-04	5.633000E+01
-2.000984E-01	-7.345301E-04	5.677000E+01
-2.000977E-01	-7.349678E-04	5.721000E+01
-2.000992E-01	-7.353902E-04	5.765000E+01
-2.000961E-01	-7.358126E-04	5.813000E+01
-2.000992E-01	-7.362888E-04	5.857000E+01
-2.000992E-01	-7.366574E-04	5.901000E+01
-2.000984E-01	-7.370337E-04	5.945000E+01
-2.000977E-01	-7.375867E-04	5.990000E+01
-2.000977E-01	-7.383163E-04	6.078000E+01
-2.000969E-01	-7.386773E-04	6.123000E+01
-2.000992E-01	-7.390535E-04	6.167000E+01
-2.000992E-01	-7.394222E-04	6.211000E+01
-2.000992E-01	-7.398292E-04	6.255000E+01
-2.000977E-01	-7.401825E-04	6.300000E+01
-2.000992E-01	-7.405664E-04	6.344000E+01
-2.001000E-01	-7.409505E-04	6.389000E+01
-2.000969E-01	-7.412653E-04	6.433000E+01
-2.000992E-01	-7.416724E-04	6.477000E+01
-2.000984E-01	-7.420487E-04	6.521000E+01
-2.000992E-01	-7.424327E-04	6.565000E+01
-2.000992E-01	-7.427552E-04	6.610000E+01
-2.001000E-01	-7.431315E-04	6.654000E+01
-2.001000E-01	-7.434694E-04	6.699000E+01
-2.000992E-01	-7.437843E-04	6.743000E+01
-2.000992E-01	-7.441146E-04	6.788000E+01
