CORRW ASCII
  CorrWare for Windows: Version 3.5f
  Potentiostatic	[-0.22 Ref,3600 Sec][default]	IV_-220mV_3.cor
  Date: 11-05-2019    Time: 02:14:32
   
   
  Open Circuit Potential (V): 0.0021
  Begin Information:          Cell Information
    Surface Area:             1
    Density:                  0
    Weight:                   0
    Polarity:                 0
    PolarityI:                0
    Corrosion Unit Type:      0
    Reference Type:           0
    Reference Potential:      0
    User-Defined Potential:   0
    Stern-Geary:              26
  End Information:            Cell Information
  Begin Pstat:                1287
    Pstat Title:              Instrument #1
    Booster Type:             0
    Booster Name:             None
    Current Range:            0
    Current Limit:            0
    Current LimitType:        0
    Sweep Type:               0
    Use Error Beep:           1
    Auxilary Type:            0
    iR Comp. Type:            0
    iR Ohms:                  0
    iR Time:                  27
    iR Ratio:                 255
    LP Filter Type:           2
    Drift Correction:         1
    Null Correction:          0
    Pstat Bandwidth Type:     2
    Gstat Bandwidth Type:     2
    External Input:           0
    SafetyMinV:               0
    SafetyMaxV:               10
    SafetyMinI:               0
    SafetyMaxI:               4
    SafetyMinQ:               0
    SafetyMaxQ:               1000
    SafetyMinT:               0
    SafetyMaxT:               50
    SafetyChT:                0
    SafetyMinVUse:            0
    SafetyMaxVUse:            0
    SafetyMinIUse:            0
    SafetyMaxIUse:            0
    SafetyMinQUse:            0
    SafetyMaxQUse:            0
    SafetyMinTUse:            0
    SafetyMaxTUse:            0
  End Pstat:                  1287
  Begin Experiment:           Potentiostatic	[-0.22 Ref,3600 Sec][default]	IV_-220mV_3.cor
    Data File:                Z:\191101_Amezawa\fr_XAS\TPB2\100% O2\Electrochem\IV_-220mV_3.cor
    Data Append:              0
    Comment Lines:            0
    Potential:                -0.22
    Potential Type:           1
    Total Time:               3600
    Time Units:               0
    Time Marker:              -1
    Measure Rate Type:        1
    Measure Rate #1:          2000
    Measure Rate #2:          10
    Measure Rate #3:          0.1
    Measure Rate #4:          2
    Use Threshold:            0
    Threshold I_Min:          -15
    Threshold I_Max:          15
    Threshold Delta:          5
    Threshold Time:           60
    Copy AuxV:                0
    Axes Type:                1
    Use Custom Pstat:         0
  End Experiment:             Potentiostatic	[-0.22 Ref,3600 Sec][default]	IV_-220mV_3.cor
  Data Points:                1939
  E(Volts)	I(A/cm2)	T(Seconds)
End Comments
-2.403274E-01	-5.857653E-04	0.000000E+00
-2.201066E-01	-7.207601E-04	9.800000E-01
-2.201066E-01	-7.197925E-04	1.430000E+00
-2.200989E-01	-7.193625E-04	1.880000E+00
-2.200989E-01	-7.191934E-04	2.320000E+00
-2.200989E-01	-7.191474E-04	2.760000E+00
-2.200912E-01	-7.192703E-04	3.210000E+00
-2.200989E-01	-7.195391E-04	3.650000E+00
-2.200989E-01	-7.197848E-04	4.100000E+00
-2.200989E-01	-7.200920E-04	4.540000E+00
-2.200989E-01	-7.204914E-04	4.980000E+00
-2.200989E-01	-7.209445E-04	5.430000E+00
-2.200989E-01	-7.213899E-04	5.860000E+00
-2.200989E-01	-7.219121E-04	6.310000E+00
-2.201066E-01	-7.224036E-04	6.750000E+00
-2.200989E-01	-7.229105E-04	7.200000E+00
-2.200989E-01	-7.234174E-04	7.640000E+00
-2.201066E-01	-7.239857E-04	8.090000E+00
-2.201066E-01	-7.245079E-04	8.520000E+00
-2.201066E-01	-7.249226E-04	8.960000E+00
-2.201142E-01	-7.260516E-04	9.850000E+00
-2.201066E-01	-7.266199E-04	1.030000E+01
-2.201142E-01	-7.271959E-04	1.073000E+01
-2.201142E-01	-7.277488E-04	1.118000E+01
-2.201142E-01	-7.283094E-04	1.162000E+01
-2.201142E-01	-7.288777E-04	1.207000E+01
-2.201142E-01	-7.294614E-04	1.251000E+01
-2.201142E-01	-7.300451E-04	1.294000E+01
-2.201219E-01	-7.306057E-04	1.339000E+01
-2.201219E-01	-7.298377E-04	1.383000E+01
-2.201219E-01	-7.291619E-04	1.428000E+01
-2.201219E-01	-7.292233E-04	1.472000E+01
-2.201219E-01	-7.296610E-04	1.516000E+01
-2.201219E-01	-7.301065E-04	1.560000E+01
-2.201219E-01	-7.305596E-04	1.605000E+01
-2.201142E-01	-7.310511E-04	1.649000E+01
-2.201142E-01	-7.315734E-04	1.693000E+01
-2.201142E-01	-7.320572E-04	1.738000E+01
-2.201142E-01	-7.325948E-04	1.781000E+01
-2.201219E-01	-7.331170E-04	1.827000E+01
-2.201142E-01	-7.335701E-04	1.871000E+01
-2.200989E-01	-7.341692E-04	1.916000E+01
-2.201066E-01	-7.351598E-04	2.004000E+01
-2.201066E-01	-7.356744E-04	2.048000E+01
-2.201066E-01	-7.360891E-04	2.092000E+01
-2.201066E-01	-7.365653E-04	2.137000E+01
-2.201066E-01	-7.370030E-04	2.181000E+01
-2.200989E-01	-7.374561E-04	2.226000E+01
-2.201066E-01	-7.379553E-04	2.270000E+01
-2.200989E-01	-7.384468E-04	2.315000E+01
-2.201066E-01	-7.389383E-04	2.358000E+01
-2.201066E-01	-7.393684E-04	2.403000E+01
-2.200989E-01	-7.397908E-04	2.447000E+01
-2.201066E-01	-7.402592E-04	2.491000E+01
-2.201066E-01	-7.407278E-04	2.536000E+01
-2.201066E-01	-7.411654E-04	2.580000E+01
-2.201066E-01	-7.416109E-04	2.625000E+01
-2.200989E-01	-7.420487E-04	2.669000E+01
-2.201066E-01	-7.425478E-04	2.713000E+01
-2.201066E-01	-7.429780E-04	2.757000E+01
-2.200989E-01	-7.434003E-04	2.801000E+01
-2.201066E-01	-7.438150E-04	2.846000E+01
-2.200989E-01	-7.442835E-04	2.890000E+01
-2.201066E-01	-7.451744E-04	2.979000E+01
-2.200989E-01	-7.456274E-04	3.026000E+01
-2.201066E-01	-7.460499E-04	3.071000E+01
-2.201066E-01	-7.465106E-04	3.116000E+01
-2.201066E-01	-7.469100E-04	3.159000E+01
-2.201066E-01	-7.473555E-04	3.204000E+01
-2.201066E-01	-7.477778E-04	3.248000E+01
-2.200989E-01	-7.481694E-04	3.292000E+01
-2.201066E-01	-7.485918E-04	3.337000E+01
-2.200989E-01	-7.489990E-04	3.381000E+01
-2.201066E-01	-7.494290E-04	3.426000E+01
-2.201066E-01	-7.497823E-04	3.470000E+01
-2.201066E-01	-7.501894E-04	3.514000E+01
-2.200989E-01	-7.506117E-04	3.558000E+01
-2.201066E-01	-7.510033E-04	3.603000E+01
-2.201066E-01	-7.513720E-04	3.647000E+01
-2.201066E-01	-7.517253E-04	3.691000E+01
-2.200989E-01	-7.521246E-04	3.736000E+01
-2.201066E-01	-7.525240E-04	3.779000E+01
-2.201066E-01	-7.529310E-04	3.824000E+01
-2.201142E-01	-7.533765E-04	3.868000E+01
-2.201142E-01	-7.537528E-04	3.913000E+01
-2.201066E-01	-7.545054E-04	4.000000E+01
-2.200989E-01	-7.548817E-04	4.045000E+01
-2.201142E-01	-7.552503E-04	4.089000E+01
-2.200989E-01	-7.556573E-04	4.133000E+01
-2.201066E-01	-7.560183E-04	4.177000E+01
-2.200989E-01	-7.563716E-04	4.222000E+01
-2.201066E-01	-7.567325E-04	4.266000E+01
-2.201066E-01	-7.570935E-04	4.311000E+01
-2.201066E-01	-7.574467E-04	4.355000E+01
-2.201066E-01	-7.578154E-04	4.399000E+01
-2.201066E-01	-7.581533E-04	4.443000E+01
-2.201066E-01	-7.585296E-04	4.487000E+01
-2.201066E-01	-7.589060E-04	4.532000E+01
-2.201066E-01	-7.592361E-04	4.576000E+01
-2.201066E-01	-7.596125E-04	4.621000E+01
-2.201066E-01	-7.599657E-04	4.665000E+01
-2.201066E-01	-7.603190E-04	4.709000E+01
-2.201066E-01	-7.606570E-04	4.753000E+01
-2.201066E-01	-7.610256E-04	4.797000E+01
-2.201066E-01	-7.614096E-04	4.842000E+01
-2.201066E-01	-7.616552E-04	4.886000E+01
-2.200989E-01	-7.623617E-04	4.975000E+01
-2.201066E-01	-7.627381E-04	5.019000E+01
-2.201066E-01	-7.630837E-04	5.063000E+01
-2.201066E-01	-7.634447E-04	5.108000E+01
-2.200989E-01	-7.638133E-04	5.152000E+01
-2.201066E-01	-7.640974E-04	5.196000E+01
-2.201066E-01	-7.644738E-04	5.241000E+01
-2.201142E-01	-7.648116E-04	5.285000E+01
-2.201142E-01	-7.651880E-04	5.330000E+01
-2.201142E-01	-7.655412E-04	5.373000E+01
-2.201142E-01	-7.659176E-04	5.418000E+01
-2.201142E-01	-7.662708E-04	5.462000E+01
-2.201142E-01	-7.666087E-04	5.507000E+01
-2.201142E-01	-7.669851E-04	5.551000E+01
-2.201142E-01	-7.672769E-04	5.595000E+01
-2.201142E-01	-7.676302E-04	5.639000E+01
-2.201066E-01	-7.678913E-04	5.683000E+01
-2.201066E-01	-7.682292E-04	5.728000E+01
-2.201066E-01	-7.685901E-04	5.772000E+01
-2.201066E-01	-7.689050E-04	5.817000E+01
-2.201142E-01	-7.691815E-04	5.861000E+01
-2.201066E-01	-7.696808E-04	5.907000E+01
-2.201066E-01	-7.703566E-04	5.994000E+01
-2.201066E-01	-7.706792E-04	6.039000E+01
-2.201066E-01	-7.709556E-04	6.082000E+01
-2.201066E-01	-7.712704E-04	6.127000E+01
-2.201066E-01	-7.716007E-04	6.171000E+01
-2.201066E-01	-7.718695E-04	6.216000E+01
-2.201066E-01	-7.721844E-04	6.260000E+01
-2.201066E-01	-7.724609E-04	6.305000E+01
-2.201066E-01	-7.727526E-04	6.348000E+01
-2.201066E-01	-7.730676E-04	6.392000E+01
-2.200989E-01	-7.733671E-04	6.437000E+01
-2.201066E-01	-7.736282E-04	6.481000E+01
-2.201066E-01	-7.739047E-04	6.526000E+01
-2.201066E-01	-7.741351E-04	6.570000E+01
-2.201066E-01	-7.743885E-04	6.614000E+01
-2.201066E-01	-7.746342E-04	6.659000E+01
-2.201066E-01	-7.749184E-04	6.703000E+01
-2.201066E-01	-7.751718E-04	6.747000E+01
-2.201066E-01	-7.754636E-04	6.791000E+01
-2.201066E-01	-7.757017E-04	6.836000E+01
-2.201142E-01	-7.760089E-04	6.880000E+01
-2.201066E-01	-7.762624E-04	6.925000E+01
-2.201066E-01	-7.768000E-04	7.014000E+01
-2.201142E-01	-7.771301E-04	7.058000E+01
-2.201142E-01	-7.774143E-04	7.103000E+01
-2.201066E-01	-7.777062E-04	7.147000E+01
-2.201066E-01	-7.779750E-04	7.191000E+01
-2.201142E-01	-7.782361E-04	7.236000E+01
-2.201066E-01	-7.785663E-04	7.280000E+01
-2.201142E-01	-7.788505E-04	7.324000E+01
-2.201142E-01	-7.791269E-04	7.368000E+01
-2.201066E-01	-7.793803E-04	7.413000E+01
-2.201066E-01	-7.796415E-04	7.457000E+01
-2.201142E-01	-7.798796E-04	7.501000E+01
-2.201142E-01	-7.801100E-04	7.546000E+01
-2.201142E-01	-7.803557E-04	7.590000E+01
-2.201142E-01	-7.806399E-04	7.634000E+01
-2.201142E-01	-7.808856E-04	7.678000E+01
-2.201142E-01	-7.811314E-04	7.723000E+01
-2.201142E-01	-7.813848E-04	7.767000E+01
-2.201219E-01	-7.816459E-04	7.812000E+01
-2.201142E-01	-7.818840E-04	7.856000E+01
-2.201142E-01	-7.821605E-04	7.900000E+01
-2.201066E-01	-7.826520E-04	7.989000E+01
-2.201066E-01	-7.829439E-04	8.034000E+01
-2.201066E-01	-7.832202E-04	8.077000E+01
-2.201142E-01	-7.834661E-04	8.122000E+01
-2.201066E-01	-7.836581E-04	8.166000E+01
-2.201066E-01	-7.838961E-04	8.211000E+01
-2.201066E-01	-7.841880E-04	8.255000E+01
-2.201066E-01	-7.843876E-04	8.299000E+01
-2.201142E-01	-7.847179E-04	8.344000E+01
-2.201142E-01	-7.849252E-04	8.387000E+01
-2.201066E-01	-7.851479E-04	8.433000E+01
-2.201066E-01	-7.854475E-04	8.477000E+01
-2.201066E-01	-7.857239E-04	8.522000E+01
-2.201066E-01	-7.859543E-04	8.566000E+01
-2.201066E-01	-7.861694E-04	8.611000E+01
-2.201066E-01	-7.863845E-04	8.654000E+01
-2.201066E-01	-7.865840E-04	8.698000E+01
-2.201066E-01	-7.867761E-04	8.743000E+01
-2.201142E-01	-7.870449E-04	8.787000E+01
-2.201066E-01	-7.872983E-04	8.832000E+01
-2.201066E-01	-7.875287E-04	8.876000E+01
-2.201142E-01	-7.876208E-04	8.922000E+01
-2.201066E-01	-7.880969E-04	9.010000E+01
-2.201066E-01	-7.883196E-04	9.054000E+01
-2.201066E-01	-7.884963E-04	9.097000E+01
-2.200989E-01	-7.887267E-04	9.142000E+01
-2.201066E-01	-7.889417E-04	9.186000E+01
-2.200989E-01	-7.891874E-04	9.231000E+01
-2.200989E-01	-7.893718E-04	9.275000E+01
-2.200989E-01	-7.896329E-04	9.320000E+01
-2.200989E-01	-7.898633E-04	9.364000E+01
-2.201066E-01	-7.900937E-04	9.409000E+01
-2.201142E-01	-7.903087E-04	9.452000E+01
-2.201142E-01	-7.904547E-04	9.496000E+01
-2.201142E-01	-7.906466E-04	9.541000E+01
-2.201142E-01	-7.908770E-04	9.585000E+01
-2.201142E-01	-7.911151E-04	9.630000E+01
-2.201142E-01	-7.913148E-04	9.673000E+01
-2.201142E-01	-7.915221E-04	9.718000E+01
-2.201219E-01	-7.917371E-04	9.762000E+01
-2.201142E-01	-7.919215E-04	9.808000E+01
-2.201142E-01	-7.921365E-04	9.852000E+01
-2.201142E-01	-7.923362E-04	9.896000E+01
-2.201142E-01	-7.927126E-04	9.984000E+01
-2.201142E-01	-7.929660E-04	1.002900E+02
-2.201142E-01	-7.931272E-04	1.007300E+02
-2.201142E-01	-7.933116E-04	1.011800E+02
-2.201142E-01	-7.935035E-04	1.016200E+02
-2.201142E-01	-7.936648E-04	1.020700E+02
-2.201142E-01	-7.938415E-04	1.025000E+02
-2.201066E-01	-7.940104E-04	1.029400E+02
-2.201142E-01	-7.941947E-04	1.033900E+02
-2.201142E-01	-7.943483E-04	1.038300E+02
-2.201142E-01	-7.945250E-04	1.042800E+02
-2.201142E-01	-7.946939E-04	1.047200E+02
-2.201142E-01	-7.948552E-04	1.051700E+02
-2.201219E-01	-7.950165E-04	1.056100E+02
-2.201142E-01	-7.951931E-04	1.060600E+02
-2.201142E-01	-7.952853E-04	1.065000E+02
-2.201142E-01	-7.954158E-04	1.069300E+02
-2.201219E-01	-7.955771E-04	1.073800E+02
-2.201142E-01	-7.957845E-04	1.078200E+02
-2.201142E-01	-7.959918E-04	1.082700E+02
-2.201219E-01	-7.961915E-04	1.087200E+02
-2.201219E-01	-7.965448E-04	1.091700E+02
-2.201142E-01	-7.968750E-04	1.100800E+02
-2.201066E-01	-7.970363E-04	1.105200E+02
-2.201142E-01	-7.971899E-04	1.109600E+02
-2.201142E-01	-7.973819E-04	1.114100E+02
-2.201142E-01	-7.975586E-04	1.118500E+02
-2.201142E-01	-7.977429E-04	1.122900E+02
-2.201142E-01	-7.978965E-04	1.127300E+02
-2.201142E-01	-7.980962E-04	1.131800E+02
-2.201142E-01	-7.982651E-04	1.136200E+02
-2.201219E-01	-7.984033E-04	1.140700E+02
-2.201142E-01	-7.985493E-04	1.145100E+02
-2.201142E-01	-7.987336E-04	1.149500E+02
-2.201219E-01	-7.989102E-04	1.153900E+02
-2.201142E-01	-7.990715E-04	1.158300E+02
-2.201142E-01	-7.992327E-04	1.162800E+02
-2.201219E-01	-7.993557E-04	1.167200E+02
-2.201142E-01	-7.994862E-04	1.171700E+02
-2.201142E-01	-7.996168E-04	1.176000E+02
-2.201142E-01	-7.997627E-04	1.180500E+02
-2.201142E-01	-7.998855E-04	1.184900E+02
-2.201142E-01	-8.000238E-04	1.189300E+02
-2.201142E-01	-8.002619E-04	1.198200E+02
-2.201142E-01	-8.003847E-04	1.202800E+02
-2.201219E-01	-8.004692E-04	1.207200E+02
-2.201142E-01	-8.005844E-04	1.211700E+02
-2.201219E-01	-8.007610E-04	1.216100E+02
-2.201142E-01	-8.009607E-04	1.220600E+02
-2.201142E-01	-8.011450E-04	1.225000E+02
-2.201142E-01	-8.012526E-04	1.229300E+02
-2.201142E-01	-8.014368E-04	1.233800E+02
-2.201142E-01	-8.015828E-04	1.238200E+02
-2.201142E-01	-8.017133E-04	1.242700E+02
-2.201142E-01	-8.018439E-04	1.247100E+02
-2.201142E-01	-8.019744E-04	1.251700E+02
-2.201142E-01	-8.021512E-04	1.256000E+02
-2.201142E-01	-8.022586E-04	1.260500E+02
-2.201219E-01	-8.024352E-04	1.264900E+02
-2.201142E-01	-8.025812E-04	1.269300E+02
-2.201142E-01	-8.027117E-04	1.273800E+02
-2.201142E-01	-8.028577E-04	1.278200E+02
-2.201219E-01	-8.029959E-04	1.282700E+02
-2.201219E-01	-8.031264E-04	1.287000E+02
-2.201142E-01	-8.030649E-04	1.291500E+02
-2.201066E-01	-8.032722E-04	1.300400E+02
-2.201066E-01	-8.033875E-04	1.304800E+02
-2.201066E-01	-8.035181E-04	1.309200E+02
-2.201142E-01	-8.036640E-04	1.313700E+02
-2.201142E-01	-8.038252E-04	1.318000E+02
-2.201066E-01	-8.039251E-04	1.322500E+02
-2.201066E-01	-8.040479E-04	1.326900E+02
-2.201142E-01	-8.042016E-04	1.331400E+02
-2.201142E-01	-8.043475E-04	1.335800E+02
-2.201066E-01	-8.044704E-04	1.340300E+02
-2.201142E-01	-8.045548E-04	1.344700E+02
-2.201066E-01	-8.047238E-04	1.349100E+02
-2.201066E-01	-8.048543E-04	1.353600E+02
-2.201066E-01	-8.049619E-04	1.357900E+02
-2.201066E-01	-8.051078E-04	1.362400E+02
-2.201066E-01	-8.051999E-04	1.366800E+02
-2.201142E-01	-8.053228E-04	1.371300E+02
-2.201066E-01	-8.053919E-04	1.375700E+02
-2.201066E-01	-8.054533E-04	1.380100E+02
-2.201066E-01	-8.055302E-04	1.384500E+02
-2.201219E-01	-8.056760E-04	1.388900E+02
-2.201142E-01	-8.057606E-04	1.397800E+02
-2.201142E-01	-8.058297E-04	1.402300E+02
-2.201219E-01	-8.059219E-04	1.406700E+02
-2.201142E-01	-8.059833E-04	1.411200E+02
-2.201142E-01	-8.060985E-04	1.415500E+02
-2.201142E-01	-8.061369E-04	1.419900E+02
-2.201142E-01	-8.062521E-04	1.424400E+02
-2.201142E-01	-8.063443E-04	1.428800E+02
-2.201142E-01	-8.064748E-04	1.433300E+02
-2.201142E-01	-8.065976E-04	1.437700E+02
-2.201219E-01	-8.067128E-04	1.442200E+02
-2.201219E-01	-8.067589E-04	1.446600E+02
-2.201219E-01	-8.068665E-04	1.451100E+02
-2.201219E-01	-8.070047E-04	1.455500E+02
-2.201142E-01	-8.071046E-04	1.459900E+02
-2.201142E-01	-8.072274E-04	1.464400E+02
-2.201142E-01	-8.072581E-04	1.468800E+02
-2.201142E-01	-8.073580E-04	1.473300E+02
-2.201219E-01	-8.075423E-04	1.477700E+02
-2.201142E-01	-8.076345E-04	1.482200E+02
-2.201142E-01	-8.077419E-04	1.486500E+02
-2.201142E-01	-8.077727E-04	1.491000E+02
-2.201142E-01	-8.079185E-04	1.499800E+02
-2.201142E-01	-8.080108E-04	1.504300E+02
-2.201142E-01	-8.081720E-04	1.508700E+02
-2.201219E-01	-8.082642E-04	1.513200E+02
-2.201142E-01	-8.083793E-04	1.517500E+02
-2.201142E-01	-8.084562E-04	1.522000E+02
-2.201142E-01	-8.085560E-04	1.526400E+02
-2.201142E-01	-8.086789E-04	1.530900E+02
-2.201142E-01	-8.087634E-04	1.535300E+02
-2.201219E-01	-8.089092E-04	1.539700E+02
-2.201142E-01	-8.089861E-04	1.544200E+02
-2.201142E-01	-8.090706E-04	1.548600E+02
-2.201142E-01	-8.091704E-04	1.553000E+02
-2.201142E-01	-8.092779E-04	1.557400E+02
-2.201142E-01	-8.093701E-04	1.561900E+02
-2.201142E-01	-8.094930E-04	1.566300E+02
-2.201142E-01	-8.095237E-04	1.570800E+02
-2.201219E-01	-8.095160E-04	1.575200E+02
-2.201219E-01	-8.096313E-04	1.579600E+02
-2.201219E-01	-8.096927E-04	1.584000E+02
-2.201296E-01	-8.099691E-04	1.588400E+02
-2.201142E-01	-8.102380E-04	1.597300E+02
-2.201142E-01	-8.103532E-04	1.601800E+02
-2.201142E-01	-8.103148E-04	1.606200E+02
-2.201142E-01	-8.104069E-04	1.610700E+02
-2.201142E-01	-8.104914E-04	1.615100E+02
-2.201066E-01	-8.106296E-04	1.619400E+02
-2.201142E-01	-8.107064E-04	1.623900E+02
-2.201142E-01	-8.107602E-04	1.628300E+02
-2.201142E-01	-8.108370E-04	1.632800E+02
-2.201066E-01	-8.108523E-04	1.637200E+02
-2.201066E-01	-8.109598E-04	1.641800E+02
-2.201142E-01	-8.110520E-04	1.646100E+02
-2.201142E-01	-8.111518E-04	1.650600E+02
-2.201142E-01	-8.112363E-04	1.655000E+02
-2.201142E-01	-8.113668E-04	1.659300E+02
-2.201142E-01	-8.114437E-04	1.663800E+02
-2.201142E-01	-8.115743E-04	1.668200E+02
-2.201142E-01	-8.115743E-04	1.672700E+02
-2.201142E-01	-8.116126E-04	1.677100E+02
-2.201219E-01	-8.117432E-04	1.681600E+02
-2.201219E-01	-8.118199E-04	1.686000E+02
-2.201219E-01	-8.119582E-04	1.690500E+02
-2.201219E-01	-8.121118E-04	1.699300E+02
-2.201219E-01	-8.121809E-04	1.703800E+02
-2.201219E-01	-8.122424E-04	1.708200E+02
-2.201296E-01	-8.123192E-04	1.712700E+02
-2.201296E-01	-8.123959E-04	1.717000E+02
-2.201219E-01	-8.124344E-04	1.721500E+02
-2.201219E-01	-8.125035E-04	1.725900E+02
-2.201219E-01	-8.125802E-04	1.730400E+02
-2.201219E-01	-8.126647E-04	1.734800E+02
-2.201219E-01	-8.127339E-04	1.739200E+02
-2.201219E-01	-8.127954E-04	1.743700E+02
-2.201219E-01	-8.128874E-04	1.748100E+02
-2.201219E-01	-8.129950E-04	1.752500E+02
-2.201219E-01	-8.130642E-04	1.756900E+02
-2.201219E-01	-8.130642E-04	1.761400E+02
-2.201219E-01	-8.131103E-04	1.765800E+02
-2.201219E-01	-8.131562E-04	1.770300E+02
-2.201219E-01	-8.132408E-04	1.774700E+02
-2.201219E-01	-8.132792E-04	1.779100E+02
-2.201142E-01	-8.133253E-04	1.783500E+02
-2.201142E-01	-8.133868E-04	1.787900E+02
-2.201219E-01	-8.134021E-04	1.792400E+02
-2.201142E-01	-8.135096E-04	1.801300E+02
-2.201142E-01	-8.135480E-04	1.805800E+02
-2.201142E-01	-8.136171E-04	1.810200E+02
-2.201142E-01	-8.135864E-04	1.814700E+02
-2.201142E-01	-8.136017E-04	1.819000E+02
-2.201142E-01	-8.136402E-04	1.823500E+02
-2.201142E-01	-8.136862E-04	1.827900E+02
-2.201142E-01	-8.137476E-04	1.832400E+02
-2.201142E-01	-8.137784E-04	1.836800E+02
-2.201219E-01	-8.138552E-04	1.841300E+02
-2.201142E-01	-8.139012E-04	1.845600E+02
-2.201219E-01	-8.139627E-04	1.850000E+02
-2.201142E-01	-8.139934E-04	1.854500E+02
-2.201142E-01	-8.140856E-04	1.858900E+02
-2.201142E-01	-8.141623E-04	1.863400E+02
-2.201142E-01	-8.142084E-04	1.867800E+02
-2.201142E-01	-8.142699E-04	1.872300E+02
-2.201219E-01	-8.143390E-04	1.876600E+02
-2.201142E-01	-8.144004E-04	1.881100E+02
-2.201142E-01	-8.145003E-04	1.885500E+02
-2.201142E-01	-8.144081E-04	1.889900E+02
-2.201142E-01	-8.144848E-04	1.898700E+02
-2.201142E-01	-8.145462E-04	1.903500E+02
-2.201142E-01	-8.145770E-04	1.907900E+02
-2.201142E-01	-8.146000E-04	1.912400E+02
-2.201142E-01	-8.146461E-04	1.916800E+02
-2.201142E-01	-8.146692E-04	1.921300E+02
-2.201066E-01	-8.146692E-04	1.925700E+02
-2.201142E-01	-8.146998E-04	1.930100E+02
-2.201142E-01	-8.147768E-04	1.934500E+02
-2.201142E-01	-8.148227E-04	1.938900E+02
-2.201296E-01	-8.148458E-04	1.943400E+02
-2.201219E-01	-8.148612E-04	1.947800E+02
-2.201142E-01	-8.148919E-04	1.952300E+02
-2.201142E-01	-8.148919E-04	1.956700E+02
-2.201142E-01	-8.149687E-04	1.961200E+02
-2.201142E-01	-8.149764E-04	1.965600E+02
-2.201142E-01	-8.150454E-04	1.970000E+02
-2.201142E-01	-8.150992E-04	1.974500E+02
-2.201142E-01	-8.151914E-04	1.978900E+02
-2.201142E-01	-8.153296E-04	1.983400E+02
-2.201142E-01	-8.154218E-04	1.987800E+02
-2.201219E-01	-8.154756E-04	1.992300E+02
-2.201142E-01	-8.156752E-04	2.001100E+02
-2.201142E-01	-8.158826E-04	2.005500E+02
-2.201219E-01	-8.159440E-04	2.009900E+02
-2.201219E-01	-8.160208E-04	2.014400E+02
-2.201142E-01	-8.161053E-04	2.018800E+02
-2.201219E-01	-8.162205E-04	2.023300E+02
-2.201142E-01	-8.163127E-04	2.027700E+02
-2.201142E-01	-8.163510E-04	2.032200E+02
-2.201219E-01	-8.163971E-04	2.036600E+02
-2.201219E-01	-8.164432E-04	2.041100E+02
-2.201219E-01	-8.164663E-04	2.045400E+02
-2.201219E-01	-8.164893E-04	2.049800E+02
-2.201142E-01	-8.165891E-04	2.054300E+02
-2.201142E-01	-8.166506E-04	2.058700E+02
-2.201142E-01	-8.167120E-04	2.063200E+02
-2.201142E-01	-8.167888E-04	2.067600E+02
-2.201219E-01	-8.169194E-04	2.072100E+02
-2.201219E-01	-8.169731E-04	2.076500E+02
-2.201219E-01	-8.169731E-04	2.081000E+02
-2.201142E-01	-8.169884E-04	2.085400E+02
-2.201142E-01	-8.172189E-04	2.089800E+02
-2.201296E-01	-8.172497E-04	2.098600E+02
-2.201219E-01	-8.173187E-04	2.103100E+02
-2.201219E-01	-8.173648E-04	2.107500E+02
-2.201219E-01	-8.173725E-04	2.112000E+02
-2.201219E-01	-8.174417E-04	2.116400E+02
-2.201219E-01	-8.175338E-04	2.120900E+02
-2.201219E-01	-8.176873E-04	2.125300E+02
-2.201219E-01	-8.177643E-04	2.129700E+02
-2.201219E-01	-8.178871E-04	2.134100E+02
-2.201219E-01	-8.179716E-04	2.138500E+02
-2.201219E-01	-8.180253E-04	2.143000E+02
-2.201142E-01	-8.180483E-04	2.147400E+02
-2.201142E-01	-8.181636E-04	2.151900E+02
-2.201142E-01	-8.182249E-04	2.156300E+02
-2.201142E-01	-8.182941E-04	2.160800E+02
-2.201142E-01	-8.183171E-04	2.165100E+02
-2.201142E-01	-8.183863E-04	2.169500E+02
-2.201142E-01	-8.184016E-04	2.174100E+02
-2.201142E-01	-8.184784E-04	2.178400E+02
-2.201219E-01	-8.185706E-04	2.182900E+02
-2.201142E-01	-8.186474E-04	2.187300E+02
-2.201219E-01	-8.187625E-04	2.191800E+02
-2.201142E-01	-8.188624E-04	2.200700E+02
-2.201142E-01	-8.189085E-04	2.205100E+02
-2.201142E-01	-8.188931E-04	2.209500E+02
-2.201142E-01	-8.189316E-04	2.214000E+02
-2.201142E-01	-8.190007E-04	2.218400E+02
-2.201219E-01	-8.190468E-04	2.222900E+02
-2.201142E-01	-8.190928E-04	2.227300E+02
-2.201142E-01	-8.191235E-04	2.231800E+02
-2.201142E-01	-8.192157E-04	2.236200E+02
-2.201142E-01	-8.192924E-04	2.240800E+02
-2.201142E-01	-8.193385E-04	2.245100E+02
-2.201219E-01	-8.193616E-04	2.249500E+02
-2.201142E-01	-8.193539E-04	2.254000E+02
-2.201066E-01	-8.194000E-04	2.258400E+02
-2.201066E-01	-8.193770E-04	2.262900E+02
-2.201142E-01	-8.194615E-04	2.267300E+02
-2.201142E-01	-8.194844E-04	2.271800E+02
-2.201066E-01	-8.195305E-04	2.276200E+02
-2.201142E-01	-8.195229E-04	2.280800E+02
-2.201066E-01	-8.195612E-04	2.285100E+02
-2.201142E-01	-8.195228E-04	2.289500E+02
-2.201142E-01	-8.195536E-04	2.298400E+02
-2.201142E-01	-8.195382E-04	2.302900E+02
-2.201142E-01	-8.195612E-04	2.307300E+02
-2.201142E-01	-8.195689E-04	2.311800E+02
-2.201142E-01	-8.195766E-04	2.316100E+02
-2.201219E-01	-8.196073E-04	2.320600E+02
-2.201142E-01	-8.196458E-04	2.325000E+02
-2.201066E-01	-8.196995E-04	2.329400E+02
-2.201142E-01	-8.197993E-04	2.333900E+02
-2.201142E-01	-8.198531E-04	2.338300E+02
-2.201142E-01	-8.199223E-04	2.342800E+02
-2.201142E-01	-8.199530E-04	2.347200E+02
-2.201142E-01	-8.199607E-04	2.351600E+02
-2.201142E-01	-8.199837E-04	2.356000E+02
-2.201142E-01	-8.199990E-04	2.360500E+02
-2.201142E-01	-8.199682E-04	2.364900E+02
-2.201142E-01	-8.199530E-04	2.369300E+02
-2.201142E-01	-8.199913E-04	2.373800E+02
-2.201142E-01	-8.200374E-04	2.378200E+02
-2.201142E-01	-8.200451E-04	2.382700E+02
-2.201142E-01	-8.200451E-04	2.387000E+02
-2.201219E-01	-8.201219E-04	2.391500E+02
-2.201142E-01	-8.202832E-04	2.400400E+02
-2.201142E-01	-8.203523E-04	2.404800E+02
-2.201219E-01	-8.203753E-04	2.409200E+02
-2.201142E-01	-8.204599E-04	2.413700E+02
-2.201142E-01	-8.204828E-04	2.418000E+02
-2.201142E-01	-8.204828E-04	2.422500E+02
-2.201142E-01	-8.204522E-04	2.427000E+02
-2.201142E-01	-8.204522E-04	2.431500E+02
-2.201142E-01	-8.204522E-04	2.435900E+02
-2.201142E-01	-8.204828E-04	2.440400E+02
-2.201142E-01	-8.205058E-04	2.444800E+02
-2.201142E-01	-8.205366E-04	2.449100E+02
-2.201142E-01	-8.205827E-04	2.453600E+02
-2.201142E-01	-8.206057E-04	2.458000E+02
-2.201219E-01	-8.206749E-04	2.462500E+02
-2.201296E-01	-8.206902E-04	2.466900E+02
-2.201219E-01	-8.206672E-04	2.471400E+02
-2.201219E-01	-8.206211E-04	2.475800E+02
-2.201219E-01	-8.207056E-04	2.480100E+02
-2.201219E-01	-8.206902E-04	2.484600E+02
-2.201142E-01	-8.205827E-04	2.489000E+02
-2.201066E-01	-8.207132E-04	2.497800E+02
-2.201142E-01	-8.207439E-04	2.502300E+02
-2.201142E-01	-8.207285E-04	2.506700E+02
-2.201142E-01	-8.207977E-04	2.511200E+02
-2.201066E-01	-8.208131E-04	2.515500E+02
-2.201066E-01	-8.208592E-04	2.519900E+02
-2.201066E-01	-8.208822E-04	2.524500E+02
-2.201142E-01	-8.209051E-04	2.528900E+02
-2.201066E-01	-8.208822E-04	2.533400E+02
-2.201142E-01	-8.209051E-04	2.537700E+02
-2.201142E-01	-8.209512E-04	2.542200E+02
-2.201142E-01	-8.209051E-04	2.546600E+02
-2.201066E-01	-8.209205E-04	2.551100E+02
-2.201066E-01	-8.200912E-04	2.555500E+02
-2.201142E-01	-8.175260E-04	2.559900E+02
-2.201142E-01	-8.176105E-04	2.564400E+02
-2.201219E-01	-8.176566E-04	2.568800E+02
-2.201142E-01	-8.177180E-04	2.573300E+02
-2.201142E-01	-8.177949E-04	2.577700E+02
-2.201066E-01	-8.177641E-04	2.582100E+02
-2.201142E-01	-8.178256E-04	2.586500E+02
-2.201066E-01	-8.180099E-04	2.591000E+02
-2.201142E-01	-8.180407E-04	2.599800E+02
-2.201142E-01	-8.180790E-04	2.604300E+02
-2.201066E-01	-8.180560E-04	2.608700E+02
-2.201066E-01	-8.180329E-04	2.613100E+02
-2.201142E-01	-8.180483E-04	2.617500E+02
-2.201142E-01	-8.180407E-04	2.622000E+02
-2.201066E-01	-8.180407E-04	2.626400E+02
-2.201142E-01	-8.180099E-04	2.631000E+02
-2.201142E-01	-8.179868E-04	2.635400E+02
-2.201142E-01	-8.180714E-04	2.639700E+02
-2.201142E-01	-8.180483E-04	2.644200E+02
-2.201066E-01	-8.181866E-04	2.648500E+02
-2.201066E-01	-8.182173E-04	2.653000E+02
-2.201066E-01	-8.182019E-04	2.657400E+02
-2.201142E-01	-8.182403E-04	2.661900E+02
-2.201142E-01	-8.181788E-04	2.666300E+02
-2.201142E-01	-8.182097E-04	2.670900E+02
-2.201066E-01	-8.183094E-04	2.675200E+02
-2.201066E-01	-8.182788E-04	2.679600E+02
-2.201066E-01	-8.183248E-04	2.684100E+02
-2.201142E-01	-8.182326E-04	2.688500E+02
-2.201142E-01	-8.181636E-04	2.697300E+02
-2.201066E-01	-8.182403E-04	2.702100E+02
-2.201142E-01	-8.182097E-04	2.706500E+02
-2.201066E-01	-8.182172E-04	2.711000E+02
-2.201066E-01	-8.182556E-04	2.715400E+02
-2.201066E-01	-8.183248E-04	2.719700E+02
-2.201066E-01	-8.183171E-04	2.724200E+02
-2.201066E-01	-8.184170E-04	2.728600E+02
-2.201066E-01	-8.183863E-04	2.733100E+02
-2.201066E-01	-8.184324E-04	2.737500E+02
-2.201066E-01	-8.184170E-04	2.742000E+02
-2.201066E-01	-8.184247E-04	2.746400E+02
-2.201142E-01	-8.184170E-04	2.750900E+02
-2.201142E-01	-8.185015E-04	2.755200E+02
-2.201066E-01	-8.186013E-04	2.759600E+02
-2.201066E-01	-8.185246E-04	2.764100E+02
-2.200989E-01	-8.186397E-04	2.768500E+02
-2.200989E-01	-8.186781E-04	2.773000E+02
-2.201066E-01	-8.185782E-04	2.777400E+02
-2.201066E-01	-8.186320E-04	2.781900E+02
-2.201066E-01	-8.187242E-04	2.786200E+02
-2.201142E-01	-8.185782E-04	2.790700E+02
-2.201219E-01	-8.185935E-04	2.799400E+02
-2.201219E-01	-8.186242E-04	2.803900E+02
-2.201219E-01	-8.186703E-04	2.808300E+02
-2.201142E-01	-8.186780E-04	2.812800E+02
-2.201142E-01	-8.186396E-04	2.817200E+02
-2.201142E-01	-8.187395E-04	2.821700E+02
-2.201142E-01	-8.186934E-04	2.826100E+02
-2.201142E-01	-8.186857E-04	2.830600E+02
-2.201142E-01	-8.188086E-04	2.835000E+02
-2.201142E-01	-8.188469E-04	2.839400E+02
-2.201142E-01	-8.189007E-04	2.843900E+02
-2.201142E-01	-8.188700E-04	2.848200E+02
-2.201142E-01	-8.189699E-04	2.852700E+02
-2.201219E-01	-8.190006E-04	2.857100E+02
-2.201219E-01	-8.190160E-04	2.861600E+02
-2.201142E-01	-8.188930E-04	2.866000E+02
-2.201142E-01	-8.191157E-04	2.870500E+02
-2.201142E-01	-8.190696E-04	2.874900E+02
-2.201142E-01	-8.190774E-04	2.879300E+02
-2.201142E-01	-8.189929E-04	2.883700E+02
-2.201219E-01	-8.177027E-04	2.888100E+02
-2.201142E-01	-8.153988E-04	2.892600E+02
-2.201142E-01	-8.161206E-04	2.901400E+02
-2.201296E-01	-8.167350E-04	2.905900E+02
-2.201219E-01	-8.170806E-04	2.910400E+02
-2.201142E-01	-8.174109E-04	2.914700E+02
-2.201142E-01	-8.176259E-04	2.919100E+02
-2.201142E-01	-8.178102E-04	2.923600E+02
-2.201142E-01	-8.178487E-04	2.928000E+02
-2.201142E-01	-8.179101E-04	2.932500E+02
-2.201142E-01	-8.181097E-04	2.936900E+02
-2.201142E-01	-8.182710E-04	2.941400E+02
-2.201142E-01	-8.183325E-04	2.945800E+02
-2.201142E-01	-8.184092E-04	2.950100E+02
-2.201219E-01	-8.184323E-04	2.954600E+02
-2.201219E-01	-8.184630E-04	2.959000E+02
-2.201142E-01	-8.185936E-04	2.963500E+02
-2.201142E-01	-8.187548E-04	2.967900E+02
-2.201142E-01	-8.188623E-04	2.972400E+02
-2.201142E-01	-8.188547E-04	2.976800E+02
-2.201142E-01	-8.189007E-04	2.981300E+02
-2.201142E-01	-8.189775E-04	2.985700E+02
-2.201142E-01	-8.191235E-04	2.990100E+02
-2.201219E-01	-8.191312E-04	2.999000E+02
-2.201296E-01	-8.190928E-04	3.003500E+02
-2.201219E-01	-8.191235E-04	3.007900E+02
-2.201142E-01	-8.191082E-04	3.012400E+02
-2.201142E-01	-8.191619E-04	3.016800E+02
-2.201142E-01	-8.191235E-04	3.021200E+02
-2.201142E-01	-8.191312E-04	3.025600E+02
-2.201142E-01	-8.191235E-04	3.030000E+02
-2.201142E-01	-8.191389E-04	3.034500E+02
-2.201219E-01	-8.191005E-04	3.038900E+02
-2.201219E-01	-8.191082E-04	3.043400E+02
-2.201219E-01	-8.192311E-04	3.047800E+02
-2.201142E-01	-8.191543E-04	3.052300E+02
-2.201219E-01	-8.192541E-04	3.056600E+02
-2.201142E-01	-8.192388E-04	3.061100E+02
-2.201142E-01	-8.192848E-04	3.065500E+02
-2.201219E-01	-8.192463E-04	3.069900E+02
-2.201219E-01	-8.192463E-04	3.074400E+02
-2.201219E-01	-8.192388E-04	3.078800E+02
-2.201219E-01	-8.191466E-04	3.083300E+02
-2.201219E-01	-8.191696E-04	3.087600E+02
-2.201219E-01	-8.192772E-04	3.092200E+02
-2.201142E-01	-8.191235E-04	3.101100E+02
-2.201219E-01	-8.191850E-04	3.105500E+02
-2.201142E-01	-8.191389E-04	3.109900E+02
-2.201142E-01	-8.191543E-04	3.114400E+02
-2.201142E-01	-8.191927E-04	3.118800E+02
-2.201296E-01	-8.194231E-04	3.123200E+02
-2.201219E-01	-8.194998E-04	3.127600E+02
-2.201142E-01	-8.195997E-04	3.132100E+02
-2.201219E-01	-8.196611E-04	3.136500E+02
-2.201142E-01	-8.197763E-04	3.141000E+02
-2.201142E-01	-8.199223E-04	3.145400E+02
-2.201142E-01	-8.200374E-04	3.149800E+02
-2.201142E-01	-8.202678E-04	3.154200E+02
-2.201142E-01	-8.203062E-04	3.158600E+02
-2.201219E-01	-8.201987E-04	3.163100E+02
-2.201219E-01	-8.201450E-04	3.167500E+02
-2.201219E-01	-8.201526E-04	3.172000E+02
-2.201219E-01	-8.201680E-04	3.176400E+02
-2.201142E-01	-8.201987E-04	3.180900E+02
-2.201142E-01	-8.202678E-04	3.185300E+02
-2.201142E-01	-8.200987E-04	3.189700E+02
-2.201219E-01	-8.203907E-04	3.198600E+02
-2.201219E-01	-8.204751E-04	3.203100E+02
-2.201142E-01	-8.205058E-04	3.207500E+02
-2.201219E-01	-8.206518E-04	3.212000E+02
-2.201219E-01	-8.208975E-04	3.216300E+02
-2.201142E-01	-8.210972E-04	3.220800E+02
-2.201142E-01	-8.212431E-04	3.225200E+02
-2.201219E-01	-8.213659E-04	3.229500E+02
-2.201142E-01	-8.214504E-04	3.234000E+02
-2.201142E-01	-8.216732E-04	3.238500E+02
-2.201142E-01	-8.217730E-04	3.243000E+02
-2.201142E-01	-8.218499E-04	3.247400E+02
-2.201142E-01	-8.219113E-04	3.251900E+02
-2.201219E-01	-8.219035E-04	3.256200E+02
-2.201219E-01	-8.219419E-04	3.260700E+02
-2.201142E-01	-8.221110E-04	3.265100E+02
-2.201142E-01	-8.222799E-04	3.269500E+02
-2.201142E-01	-8.223950E-04	3.274000E+02
-2.201066E-01	-8.223797E-04	3.278300E+02
-2.201142E-01	-8.224105E-04	3.282800E+02
-2.201142E-01	-8.223950E-04	3.287200E+02
-2.201142E-01	-8.225564E-04	3.291600E+02
-2.201219E-01	-8.226562E-04	3.300500E+02
-2.201219E-01	-8.226408E-04	3.304900E+02
-2.201219E-01	-8.227945E-04	3.309300E+02
-2.201142E-01	-8.227407E-04	3.313800E+02
-2.201142E-01	-8.228252E-04	3.318100E+02
-2.201142E-01	-8.228252E-04	3.322600E+02
-2.201219E-01	-8.227638E-04	3.327000E+02
-2.201219E-01	-8.225487E-04	3.331500E+02
-2.201142E-01	-8.226332E-04	3.336000E+02
-2.201066E-01	-8.225795E-04	3.340500E+02
-2.201142E-01	-8.225334E-04	3.344900E+02
-2.201142E-01	-8.225256E-04	3.349200E+02
-2.201219E-01	-8.224566E-04	3.353700E+02
-2.201219E-01	-8.225256E-04	3.358100E+02
-2.201219E-01	-8.224412E-04	3.362600E+02
-2.201142E-01	-8.221724E-04	3.367000E+02
-2.201142E-01	-8.220341E-04	3.371500E+02
-2.201142E-01	-8.221570E-04	3.375800E+02
-2.201142E-01	-8.221417E-04	3.380300E+02
-2.201142E-01	-8.221570E-04	3.384700E+02
-2.201142E-01	-8.222492E-04	3.389100E+02
-2.201142E-01	-8.223489E-04	3.397900E+02
-2.201142E-01	-8.224719E-04	3.402400E+02
-2.201219E-01	-8.224642E-04	3.406800E+02
-2.201219E-01	-8.224872E-04	3.411300E+02
-2.201219E-01	-8.225103E-04	3.415600E+02
-2.201142E-01	-8.225333E-04	3.420000E+02
-2.201142E-01	-8.226946E-04	3.424500E+02
-2.201142E-01	-8.227099E-04	3.428900E+02
-2.201219E-01	-8.226562E-04	3.433500E+02
-2.201142E-01	-8.226946E-04	3.437800E+02
-2.201142E-01	-8.226639E-04	3.442300E+02
-2.201142E-01	-8.227330E-04	3.446700E+02
-2.201066E-01	-8.228098E-04	3.451200E+02
-2.201142E-01	-8.229864E-04	3.455600E+02
-2.201142E-01	-8.229250E-04	3.460000E+02
-2.201219E-01	-8.228865E-04	3.464500E+02
-2.201142E-01	-8.229020E-04	3.468800E+02
-2.201142E-01	-8.230862E-04	3.473300E+02
-2.201142E-01	-8.230632E-04	3.477700E+02
-2.201142E-01	-8.231400E-04	3.482200E+02
-2.201142E-01	-8.232706E-04	3.486600E+02
-2.201219E-01	-8.233243E-04	3.491100E+02
-2.201142E-01	-8.235470E-04	3.500100E+02
-2.201296E-01	-8.235931E-04	3.504600E+02
-2.201296E-01	-8.234626E-04	3.509000E+02
-2.201219E-01	-8.233857E-04	3.513500E+02
-2.201219E-01	-8.234626E-04	3.517900E+02
-2.201219E-01	-8.237620E-04	3.522300E+02
-2.201219E-01	-8.236700E-04	3.526700E+02
-2.201142E-01	-8.236392E-04	3.531200E+02
-2.201219E-01	-8.237620E-04	3.535600E+02
-2.201219E-01	-8.235701E-04	3.540000E+02
-2.201219E-01	-8.233474E-04	3.544500E+02
-2.201296E-01	-8.233781E-04	3.548900E+02
-2.201219E-01	-8.234011E-04	3.553400E+02
-2.201219E-01	-8.234088E-04	3.557800E+02
-2.201219E-01	-8.230786E-04	3.562300E+02
-2.201219E-01	-8.230556E-04	3.566600E+02
-2.201219E-01	-8.229250E-04	3.571100E+02
-2.201219E-01	-8.229864E-04	3.575500E+02
-2.201296E-01	-8.228021E-04	3.579900E+02
-2.201296E-01	-8.226101E-04	3.584400E+02
-2.201142E-01	-8.224565E-04	3.588800E+02
-2.201142E-01	-8.220879E-04	3.597700E+02
-2.201066E-01	-8.219880E-04	3.602200E+02
-2.201142E-01	-8.217961E-04	3.606600E+02
-2.201066E-01	-8.217346E-04	3.611100E+02
-2.201219E-01	-8.214504E-04	3.615500E+02
-2.201219E-01	-8.214428E-04	3.619800E+02
-2.201142E-01	-8.211816E-04	3.624300E+02
-2.201142E-01	-8.211203E-04	3.628700E+02
-2.201142E-01	-8.209897E-04	3.633200E+02
-2.201142E-01	-8.211433E-04	3.637600E+02
-2.201142E-01	-8.211125E-04	3.642100E+02
-2.201142E-01	-8.208744E-04	3.646500E+02
-2.201219E-01	-8.208207E-04	3.651000E+02
-2.201142E-01	-8.207516E-04	3.655300E+02
-2.201066E-01	-8.207516E-04	3.659700E+02
-2.201142E-01	-8.205979E-04	3.664200E+02
-2.201142E-01	-8.205058E-04	3.668600E+02
-2.201066E-01	-8.205443E-04	3.673100E+02
-2.201066E-01	-8.204828E-04	3.677500E+02
-2.201219E-01	-8.204982E-04	3.682000E+02
-2.201142E-01	-8.206518E-04	3.686300E+02
-2.201142E-01	-8.210358E-04	3.690800E+02
-2.201142E-01	-8.211126E-04	3.699600E+02
-2.201219E-01	-8.212432E-04	3.704100E+02
-2.201219E-01	-8.209974E-04	3.708500E+02
-2.201219E-01	-8.209897E-04	3.713000E+02
-2.201219E-01	-8.209283E-04	3.717400E+02
-2.201219E-01	-8.209820E-04	3.721800E+02
-2.201219E-01	-8.209360E-04	3.726200E+02
-2.201219E-01	-8.209974E-04	3.730700E+02
-2.201219E-01	-8.208592E-04	3.735100E+02
-2.201219E-01	-8.207286E-04	3.739500E+02
-2.201219E-01	-8.206211E-04	3.744000E+02
-2.201296E-01	-8.206595E-04	3.748400E+02
-2.201219E-01	-8.207593E-04	3.753000E+02
-2.201219E-01	-8.207363E-04	3.757300E+02
-2.201219E-01	-8.207593E-04	3.761800E+02
-2.201219E-01	-8.207824E-04	3.766200E+02
-2.201142E-01	-8.208592E-04	3.770700E+02
-2.201219E-01	-8.208361E-04	3.775100E+02
-2.201219E-01	-8.208976E-04	3.779500E+02
-2.201219E-01	-8.208745E-04	3.784000E+02
-2.201142E-01	-8.210281E-04	3.788300E+02
-2.201142E-01	-8.209897E-04	3.797200E+02
-2.201142E-01	-8.208439E-04	3.801800E+02
-2.201066E-01	-8.205827E-04	3.806100E+02
-2.201142E-01	-8.204599E-04	3.810600E+02
-2.201219E-01	-8.205750E-04	3.815000E+02
-2.201219E-01	-8.207133E-04	3.819400E+02
-2.201142E-01	-8.207439E-04	3.823900E+02
-2.201142E-01	-8.206672E-04	3.828300E+02
-2.201142E-01	-8.204829E-04	3.832800E+02
-2.201142E-01	-8.203677E-04	3.837100E+02
-2.201142E-01	-8.205750E-04	3.841600E+02
-2.201219E-01	-8.205750E-04	3.846000E+02
-2.201219E-01	-8.207517E-04	3.850600E+02
-2.201142E-01	-8.203523E-04	3.855000E+02
-2.201142E-01	-8.200143E-04	3.859300E+02
-2.201142E-01	-8.195612E-04	3.863800E+02
-2.201142E-01	-8.192541E-04	3.868200E+02
-2.201142E-01	-8.194692E-04	3.872700E+02
-2.201219E-01	-8.196150E-04	3.877100E+02
-2.201142E-01	-8.195612E-04	3.881600E+02
-2.201142E-01	-8.196458E-04	3.886000E+02
-2.201142E-01	-8.195151E-04	3.890500E+02
-2.201142E-01	-8.196917E-04	3.899300E+02
-2.201142E-01	-8.196764E-04	3.903800E+02
-2.201219E-01	-8.199145E-04	3.908200E+02
-2.201142E-01	-8.200681E-04	3.912700E+02
-2.201142E-01	-8.199759E-04	3.917100E+02
-2.201142E-01	-8.197071E-04	3.921600E+02
-2.201219E-01	-8.198454E-04	3.926000E+02
-2.201219E-01	-8.198070E-04	3.930500E+02
-2.201219E-01	-8.194998E-04	3.934900E+02
-2.201142E-01	-8.193922E-04	3.939200E+02
-2.201142E-01	-8.194614E-04	3.943700E+02
-2.201219E-01	-8.194767E-04	3.948100E+02
-2.201142E-01	-8.195228E-04	3.952600E+02
-2.201219E-01	-8.195382E-04	3.957000E+02
-2.201296E-01	-8.197071E-04	3.961500E+02
-2.201142E-01	-8.194537E-04	3.966000E+02
-2.201142E-01	-8.191235E-04	3.970500E+02
-2.201219E-01	-8.192540E-04	3.974800E+02
-2.201142E-01	-8.193845E-04	3.979200E+02
-2.201142E-01	-8.192540E-04	3.983700E+02
-2.201219E-01	-8.193385E-04	3.988100E+02
-2.201142E-01	-8.193154E-04	3.992600E+02
-2.201142E-01	-8.193539E-04	4.001400E+02
-2.201142E-01	-8.192617E-04	4.005800E+02
-2.201142E-01	-8.193309E-04	4.010300E+02
-2.201219E-01	-8.192848E-04	4.014700E+02
-2.201142E-01	-8.193384E-04	4.019100E+02
-2.201142E-01	-8.193768E-04	4.023600E+02
-2.201142E-01	-8.194921E-04	4.027900E+02
-2.201142E-01	-8.194460E-04	4.032400E+02
-2.201219E-01	-8.195843E-04	4.036800E+02
-2.201142E-01	-8.196226E-04	4.041300E+02
-2.201142E-01	-8.197225E-04	4.045700E+02
-2.201142E-01	-8.194460E-04	4.050100E+02
-2.201142E-01	-8.195382E-04	4.054600E+02
-2.201142E-01	-8.196304E-04	4.058900E+02
-2.201219E-01	-8.196073E-04	4.063400E+02
-2.201142E-01	-8.195382E-04	4.067800E+02
-2.201142E-01	-8.194614E-04	4.072300E+02
-2.201142E-01	-8.195151E-04	4.076700E+02
-2.201066E-01	-8.193768E-04	4.081200E+02
-2.201219E-01	-8.193154E-04	4.085600E+02
-2.201142E-01	-8.190083E-04	4.089900E+02
-2.201142E-01	-8.191234E-04	4.098800E+02
-2.201142E-01	-8.190851E-04	4.103300E+02
-2.201219E-01	-8.190543E-04	4.107700E+02
-2.201142E-01	-8.191465E-04	4.112200E+02
-2.201066E-01	-8.190851E-04	4.116600E+02
-2.201066E-01	-8.191541E-04	4.121100E+02
-2.201142E-01	-8.189699E-04	4.125500E+02
-2.201142E-01	-8.190006E-04	4.129900E+02
-2.201219E-01	-8.189929E-04	4.134400E+02
-2.201142E-01	-8.191004E-04	4.138700E+02
-2.201142E-01	-8.190083E-04	4.143200E+02
-2.201142E-01	-8.186242E-04	4.147600E+02
-2.201219E-01	-8.187395E-04	4.152100E+02
-2.201219E-01	-8.185782E-04	4.156500E+02
-2.201142E-01	-8.185936E-04	4.161000E+02
-2.201066E-01	-8.184937E-04	4.165400E+02
-2.201142E-01	-8.186780E-04	4.169800E+02
-2.201142E-01	-8.185475E-04	4.174300E+02
-2.201219E-01	-8.186550E-04	4.178700E+02
-2.201066E-01	-8.185706E-04	4.183200E+02
-2.201142E-01	-8.184169E-04	4.187600E+02
-2.201142E-01	-8.185092E-04	4.192100E+02
-2.201219E-01	-8.184401E-04	4.200900E+02
-2.201219E-01	-8.184862E-04	4.205300E+02
-2.201219E-01	-8.186397E-04	4.209700E+02
-2.201219E-01	-8.186474E-04	4.214200E+02
-2.201296E-01	-8.185782E-04	4.218600E+02
-2.201296E-01	-8.185475E-04	4.223100E+02
-2.201219E-01	-8.183555E-04	4.227400E+02
-2.201219E-01	-8.184170E-04	4.231900E+02
-2.201219E-01	-8.184093E-04	4.236300E+02
-2.201296E-01	-8.183555E-04	4.240800E+02
-2.201219E-01	-8.181251E-04	4.245200E+02
-2.201219E-01	-8.183786E-04	4.249600E+02
-2.201219E-01	-8.182941E-04	4.254100E+02
-2.201219E-01	-8.183632E-04	4.258400E+02
-2.201296E-01	-8.182249E-04	4.262900E+02
-2.201296E-01	-8.183632E-04	4.267300E+02
-2.201219E-01	-8.182941E-04	4.271800E+02
-2.201219E-01	-8.181866E-04	4.276200E+02
-2.201142E-01	-8.181251E-04	4.280700E+02
-2.201296E-01	-8.179332E-04	4.285100E+02
-2.201219E-01	-8.179868E-04	4.289400E+02
-2.201066E-01	-8.181021E-04	4.298300E+02
-2.201142E-01	-8.180637E-04	4.303100E+02
-2.201219E-01	-8.178948E-04	4.307400E+02
-2.201142E-01	-8.180022E-04	4.311900E+02
-2.201142E-01	-8.179178E-04	4.316300E+02
-2.201142E-01	-8.179178E-04	4.320800E+02
-2.201219E-01	-8.182327E-04	4.325200E+02
-2.201219E-01	-8.180637E-04	4.329600E+02
-2.201219E-01	-8.179485E-04	4.334100E+02
-2.201142E-01	-8.180099E-04	4.338500E+02
-2.201219E-01	-8.180867E-04	4.343000E+02
-2.201296E-01	-8.182249E-04	4.347400E+02
-2.201142E-01	-8.180483E-04	4.351900E+02
-2.201142E-01	-8.180944E-04	4.356200E+02
-2.201142E-01	-8.181328E-04	4.360700E+02
-2.201219E-01	-8.180099E-04	4.365100E+02
-2.201219E-01	-8.165123E-04	4.369500E+02
-2.201142E-01	-8.166660E-04	4.374000E+02
-2.201142E-01	-8.168733E-04	4.378400E+02
-2.201219E-01	-8.170576E-04	4.382900E+02
-2.201219E-01	-8.171345E-04	4.387300E+02
-2.201142E-01	-8.171651E-04	4.391800E+02
-2.201142E-01	-8.170192E-04	4.400700E+02
-2.201142E-01	-8.170192E-04	4.405100E+02
-2.201142E-01	-8.171575E-04	4.409500E+02
-2.201066E-01	-8.172190E-04	4.414000E+02
-2.201142E-01	-8.170653E-04	4.418400E+02
-2.201219E-01	-8.170576E-04	4.422900E+02
-2.201219E-01	-8.169118E-04	4.427300E+02
-2.201142E-01	-8.168810E-04	4.431800E+02
-2.201219E-01	-8.167350E-04	4.436200E+02
-2.201142E-01	-8.167275E-04	4.440700E+02
-2.201219E-01	-8.167965E-04	4.445100E+02
-2.201142E-01	-8.166814E-04	4.449500E+02
-2.201066E-01	-8.167888E-04	4.453900E+02
-2.201066E-01	-8.167120E-04	4.458300E+02
-2.201142E-01	-8.167197E-04	4.462800E+02
-2.201219E-01	-8.164740E-04	4.467200E+02
-2.201142E-01	-8.164125E-04	4.471700E+02
-2.201142E-01	-8.165431E-04	4.476100E+02
-2.201142E-01	-8.165815E-04	4.480600E+02
-2.201142E-01	-8.166506E-04	4.485000E+02
-2.201219E-01	-8.164970E-04	4.489400E+02
-2.201142E-01	-8.166122E-04	4.498200E+02
-2.201219E-01	-8.167044E-04	4.502700E+02
-2.201219E-01	-8.168963E-04	4.507100E+02
-2.201296E-01	-8.166736E-04	4.511600E+02
-2.201296E-01	-8.169117E-04	4.516000E+02
-2.201219E-01	-8.167197E-04	4.520500E+02
-2.201219E-01	-8.167504E-04	4.524900E+02
-2.201219E-01	-8.166659E-04	4.529200E+02
-2.201142E-01	-8.166813E-04	4.533700E+02
-2.201219E-01	-8.165584E-04	4.538200E+02
-2.201296E-01	-8.165276E-04	4.542700E+02
-2.201219E-01	-8.164279E-04	4.547100E+02
-2.201219E-01	-8.166045E-04	4.551600E+02
-2.201219E-01	-8.164586E-04	4.556000E+02
-2.201219E-01	-8.165046E-04	4.560400E+02
-2.201296E-01	-8.163741E-04	4.564800E+02
-2.201219E-01	-8.162819E-04	4.569200E+02
-2.201219E-01	-8.163357E-04	4.573700E+02
-2.201142E-01	-8.164356E-04	4.578100E+02
-2.201219E-01	-8.165430E-04	4.582600E+02
-2.201219E-01	-8.163971E-04	4.587000E+02
-2.201219E-01	-8.165968E-04	4.591400E+02
-2.201142E-01	-8.164586E-04	4.600300E+02
-2.201219E-01	-8.164510E-04	4.604700E+02
-2.201219E-01	-8.164893E-04	4.609100E+02
-2.201219E-01	-8.165584E-04	4.613600E+02
-2.201219E-01	-8.163204E-04	4.618000E+02
-2.201219E-01	-8.163588E-04	4.622500E+02
-2.201219E-01	-8.163818E-04	4.626800E+02
-2.201219E-01	-8.163280E-04	4.631300E+02
-2.201219E-01	-8.161668E-04	4.635700E+02
-2.201219E-01	-8.163280E-04	4.640100E+02
-2.201142E-01	-8.162589E-04	4.644700E+02
-2.201219E-01	-8.162589E-04	4.649100E+02
-2.201219E-01	-8.163665E-04	4.653600E+02
-2.201142E-01	-8.164202E-04	4.657900E+02
-2.201219E-01	-8.162896E-04	4.662400E+02
-2.201296E-01	-8.160746E-04	4.666800E+02
-2.201296E-01	-8.160977E-04	4.671300E+02
-2.201142E-01	-8.164202E-04	4.675700E+02
-2.201142E-01	-8.164432E-04	4.680100E+02
-2.201219E-01	-8.164893E-04	4.684600E+02
-2.201142E-01	-8.165892E-04	4.688900E+02
-2.201142E-01	-8.167965E-04	4.697900E+02
-2.201142E-01	-8.169962E-04	4.702400E+02
-2.201142E-01	-8.170884E-04	4.706700E+02
-2.201219E-01	-8.171037E-04	4.711300E+02
-2.201219E-01	-8.173187E-04	4.715700E+02
-2.201219E-01	-8.174262E-04	4.720100E+02
-2.201142E-01	-8.173187E-04	4.724600E+02
-2.201142E-01	-8.171191E-04	4.728900E+02
-2.201142E-01	-8.173341E-04	4.733400E+02
-2.201142E-01	-8.170499E-04	4.737800E+02
-2.201142E-01	-8.172573E-04	4.742300E+02
-2.201142E-01	-8.175031E-04	4.746700E+02
-2.201219E-01	-8.178026E-04	4.751200E+02
-2.201142E-01	-8.180099E-04	4.755600E+02
-2.201142E-01	-8.179946E-04	4.760000E+02
-2.201142E-01	-8.179716E-04	4.764400E+02
-2.201142E-01	-8.180329E-04	4.768800E+02
-2.201142E-01	-8.178563E-04	4.773300E+02
-2.201219E-01	-8.178179E-04	4.777700E+02
-2.201219E-01	-8.181405E-04	4.782200E+02
-2.201142E-01	-8.180407E-04	4.786600E+02
-2.201142E-01	-8.176719E-04	4.791100E+02
-2.201142E-01	-8.179638E-04	4.799900E+02
-2.201142E-01	-8.179177E-04	4.804400E+02
-2.201219E-01	-8.179023E-04	4.808800E+02
-2.201142E-01	-8.176182E-04	4.813300E+02
-2.201066E-01	-8.175798E-04	4.817700E+02
-2.201142E-01	-8.175798E-04	4.822200E+02
-2.201142E-01	-8.176105E-04	4.826600E+02
-2.201142E-01	-8.177180E-04	4.831100E+02
-2.201066E-01	-8.176566E-04	4.835500E+02
-2.201066E-01	-8.175952E-04	4.839800E+02
-2.201142E-01	-8.175798E-04	4.844300E+02
-2.201142E-01	-8.178256E-04	4.848700E+02
-2.201066E-01	-8.178563E-04	4.853200E+02
-2.201219E-01	-8.176105E-04	4.857600E+02
-2.201219E-01	-8.174416E-04	4.862100E+02
-2.201219E-01	-8.176950E-04	4.866500E+02
-2.201219E-01	-8.175798E-04	4.871000E+02
-2.201219E-01	-8.177871E-04	4.875400E+02
-2.201066E-01	-8.178256E-04	4.879800E+02
-2.201142E-01	-8.173110E-04	4.884300E+02
-2.201142E-01	-8.175798E-04	4.888700E+02
-2.201142E-01	-8.176490E-04	4.897500E+02
-2.201142E-01	-8.176028E-04	4.902000E+02
-2.201142E-01	-8.175567E-04	4.906300E+02
-2.201219E-01	-8.175261E-04	4.910900E+02
-2.201142E-01	-8.176566E-04	4.915300E+02
-2.201219E-01	-8.176413E-04	4.919700E+02
-2.201066E-01	-8.177257E-04	4.924200E+02
-2.201142E-01	-8.177949E-04	4.928600E+02
-2.201066E-01	-8.178102E-04	4.933100E+02
-2.201142E-01	-8.177795E-04	4.937500E+02
-2.201142E-01	-8.176719E-04	4.941900E+02
-2.201142E-01	-8.174185E-04	4.946300E+02
-2.201142E-01	-8.172880E-04	4.950800E+02
-2.201142E-01	-8.170960E-04	4.955200E+02
-2.201142E-01	-8.171651E-04	4.959600E+02
-2.201142E-01	-8.171267E-04	4.964100E+02
-2.201219E-01	-8.168886E-04	4.968500E+02
-2.201219E-01	-8.168502E-04	4.972900E+02
-2.201219E-01	-8.168733E-04	4.977300E+02
-2.201296E-01	-8.168656E-04	4.981800E+02
-2.201219E-01	-8.169347E-04	4.986200E+02
-2.201142E-01	-8.171190E-04	4.990800E+02
-2.201066E-01	-8.171421E-04	4.999500E+02
-2.201066E-01	-8.171805E-04	5.004000E+02
-2.201142E-01	-8.173725E-04	5.008300E+02
-2.201142E-01	-8.174416E-04	5.012800E+02
-2.201142E-01	-8.174953E-04	5.017200E+02
-2.201142E-01	-8.174723E-04	5.021700E+02
-2.201066E-01	-8.175645E-04	5.026100E+02
-2.201066E-01	-8.175875E-04	5.030700E+02
-2.201142E-01	-8.176029E-04	5.035000E+02
-2.201142E-01	-8.176029E-04	5.039400E+02
-2.201142E-01	-8.174953E-04	5.043900E+02
-2.201142E-01	-8.172419E-04	5.048300E+02
-2.201142E-01	-8.172726E-04	5.052800E+02
-2.201142E-01	-8.171421E-04	5.057200E+02
-2.201142E-01	-8.168733E-04	5.061700E+02
-2.201142E-01	-8.166736E-04	5.066100E+02
-2.201142E-01	-8.164048E-04	5.070500E+02
-2.201142E-01	-8.162896E-04	5.074900E+02
-2.201142E-01	-8.159748E-04	5.079300E+02
-2.201219E-01	-8.153757E-04	5.083800E+02
-2.201066E-01	-8.144157E-04	5.088200E+02
-2.201142E-01	-8.144772E-04	5.097100E+02
-2.201066E-01	-8.147307E-04	5.101800E+02
-2.201142E-01	-8.148458E-04	5.106200E+02
-2.201066E-01	-8.148612E-04	5.110700E+02
-2.201066E-01	-8.146998E-04	5.115100E+02
-2.201066E-01	-8.147920E-04	5.119400E+02
-2.200989E-01	-8.148612E-04	5.123900E+02
-2.201142E-01	-8.148535E-04	5.128300E+02
-2.201066E-01	-8.146154E-04	5.132800E+02
-2.201066E-01	-8.147229E-04	5.137200E+02
-2.201066E-01	-8.146615E-04	5.141700E+02
-2.201066E-01	-8.147153E-04	5.146100E+02
-2.200989E-01	-8.148074E-04	5.150600E+02
-2.201066E-01	-8.148535E-04	5.154900E+02
-2.201066E-01	-8.149457E-04	5.159300E+02
-2.201066E-01	-8.148612E-04	5.163800E+02
-2.201142E-01	-8.146077E-04	5.168200E+02
-2.201066E-01	-8.145770E-04	5.172700E+02
-2.201066E-01	-8.142774E-04	5.177000E+02
-2.201142E-01	-8.142851E-04	5.181500E+02
-2.201066E-01	-8.142851E-04	5.185900E+02
-2.201142E-01	-8.144926E-04	5.190400E+02
-2.201142E-01	-8.144618E-04	5.199100E+02
-2.201219E-01	-8.144234E-04	5.203600E+02
-2.201219E-01	-8.143237E-04	5.208000E+02
-2.201219E-01	-8.143237E-04	5.212500E+02
-2.201219E-01	-8.143698E-04	5.216800E+02
-2.201142E-01	-8.144081E-04	5.221300E+02
-2.201219E-01	-8.143313E-04	5.225700E+02
-2.201142E-01	-8.143313E-04	5.230100E+02
-2.201142E-01	-8.143389E-04	5.234700E+02
-2.201142E-01	-8.143160E-04	5.239000E+02
-2.201142E-01	-8.143850E-04	5.243500E+02
-2.201066E-01	-8.143313E-04	5.247900E+02
-2.201142E-01	-8.143313E-04	5.252400E+02
-2.201142E-01	-8.143237E-04	5.256800E+02
-2.201142E-01	-8.140318E-04	5.261300E+02
-2.201219E-01	-8.138244E-04	5.265700E+02
-2.201219E-01	-8.137784E-04	5.270100E+02
-2.201219E-01	-8.137630E-04	5.274500E+02
-2.201219E-01	-8.138629E-04	5.278900E+02
-2.201296E-01	-8.139319E-04	5.283400E+02
-2.201219E-01	-8.138474E-04	5.287800E+02
-2.201296E-01	-8.136862E-04	5.292300E+02
-2.201296E-01	-8.136171E-04	5.301200E+02
-2.201296E-01	-8.135480E-04	5.305600E+02
-2.201296E-01	-8.135480E-04	5.310000E+02
-2.201296E-01	-8.137015E-04	5.314500E+02
-2.201219E-01	-8.139242E-04	5.318800E+02
-2.201142E-01	-8.140549E-04	5.323300E+02
-2.201219E-01	-8.140549E-04	5.327700E+02
-2.201142E-01	-8.141317E-04	5.332200E+02
-2.201142E-01	-8.142545E-04	5.336600E+02
-2.201142E-01	-8.143313E-04	5.341100E+02
-2.201219E-01	-8.142468E-04	5.345500E+02
-2.201219E-01	-8.140779E-04	5.349900E+02
-2.201219E-01	-8.141469E-04	5.354400E+02
-2.201219E-01	-8.140625E-04	5.358800E+02
-2.201219E-01	-8.140241E-04	5.363300E+02
-2.201219E-01	-8.138858E-04	5.367700E+02
-2.201142E-01	-8.136708E-04	5.372200E+02
-2.201142E-01	-8.135941E-04	5.376600E+02
-2.201142E-01	-8.137092E-04	5.381000E+02
-2.201219E-01	-8.136478E-04	5.385400E+02
-2.201219E-01	-8.135632E-04	5.389800E+02
-2.201219E-01	-8.135018E-04	5.398700E+02
-2.201219E-01	-8.134251E-04	5.403200E+02
-2.201219E-01	-8.133713E-04	5.407500E+02
-2.201296E-01	-8.134712E-04	5.412000E+02
-2.201219E-01	-8.133790E-04	5.416400E+02
-2.201219E-01	-8.133636E-04	5.420900E+02
-2.201142E-01	-8.133175E-04	5.425300E+02
-2.201142E-01	-8.133636E-04	5.429700E+02
-2.201142E-01	-8.134097E-04	5.434200E+02
-2.201142E-01	-8.134020E-04	5.438500E+02
-2.201219E-01	-8.133021E-04	5.443000E+02
-2.201219E-01	-8.133482E-04	5.447400E+02
-2.201219E-01	-8.133636E-04	5.451900E+02
-2.201219E-01	-8.133866E-04	5.456300E+02
-2.201296E-01	-8.133790E-04	5.460800E+02
-2.201142E-01	-8.132022E-04	5.465200E+02
-2.201142E-01	-8.132253E-04	5.469500E+02
-2.201142E-01	-8.133021E-04	5.474000E+02
-2.201219E-01	-8.134557E-04	5.478400E+02
-2.201219E-01	-8.135326E-04	5.482900E+02
-2.201142E-01	-8.136401E-04	5.487300E+02
-2.201219E-01	-8.136247E-04	5.491800E+02
-2.201219E-01	-8.133021E-04	5.500600E+02
-2.201219E-01	-8.131870E-04	5.505000E+02
-2.201142E-01	-8.133021E-04	5.509400E+02
-2.201142E-01	-8.133021E-04	5.513900E+02
-2.201219E-01	-8.133559E-04	5.518300E+02
-2.201219E-01	-8.133021E-04	5.522800E+02
-2.201219E-01	-8.132944E-04	5.527100E+02
-2.201219E-01	-8.133636E-04	5.531600E+02
-2.201219E-01	-8.133098E-04	5.536000E+02
-2.201296E-01	-8.133405E-04	5.540500E+02
-2.201142E-01	-8.132483E-04	5.544900E+02
-2.201219E-01	-8.135096E-04	5.549300E+02
-2.201219E-01	-8.134942E-04	5.553800E+02
-2.201219E-01	-8.133790E-04	5.558200E+02
-2.201219E-01	-8.133943E-04	5.562700E+02
-2.201219E-01	-8.133943E-04	5.567100E+02
-2.201142E-01	-8.133021E-04	5.571600E+02
-2.201219E-01	-8.133098E-04	5.575900E+02
-2.201296E-01	-8.132176E-04	5.580400E+02
-2.201142E-01	-8.131486E-04	5.584800E+02
-2.201142E-01	-8.123806E-04	5.589200E+02
-2.201142E-01	-8.124957E-04	5.598100E+02
-2.201142E-01	-8.124190E-04	5.602600E+02
-2.201142E-01	-8.124727E-04	5.606900E+02
-2.201219E-01	-8.124420E-04	5.611500E+02
-2.201066E-01	-8.125418E-04	5.615900E+02
-2.201142E-01	-8.124113E-04	5.620400E+02
-2.201066E-01	-8.124420E-04	5.624800E+02
-2.201142E-01	-8.124957E-04	5.629200E+02
-2.201142E-01	-8.125418E-04	5.633700E+02
-2.201142E-01	-8.124420E-04	5.638100E+02
-2.201142E-01	-8.124574E-04	5.642500E+02
-2.201142E-01	-8.123652E-04	5.646900E+02
-2.201142E-01	-8.123498E-04	5.651400E+02
-2.201142E-01	-8.122653E-04	5.655800E+02
-2.201142E-01	-8.123191E-04	5.660300E+02
-2.201142E-01	-8.124344E-04	5.664700E+02
-2.201142E-01	-8.123883E-04	5.669100E+02
-2.201142E-01	-8.124420E-04	5.673500E+02
-2.201142E-01	-8.123959E-04	5.677900E+02
-2.201066E-01	-8.124036E-04	5.682400E+02
-2.201142E-01	-8.122961E-04	5.686800E+02
-2.201142E-01	-8.122961E-04	5.691300E+02
-2.201142E-01	-8.122884E-04	5.700000E+02
-2.201219E-01	-8.121962E-04	5.704500E+02
-2.201219E-01	-8.115665E-04	5.708900E+02
-2.201142E-01	-8.090475E-04	5.713400E+02
-2.201142E-01	-8.075884E-04	5.717800E+02
-2.201219E-01	-8.074270E-04	5.722300E+02
-2.201142E-01	-8.078955E-04	5.726700E+02
-2.201219E-01	-8.081720E-04	5.731200E+02
-2.201219E-01	-8.082335E-04	5.735600E+02
-2.201296E-01	-8.083793E-04	5.739900E+02
-2.201219E-01	-8.083641E-04	5.744400E+02
-2.201219E-01	-8.082488E-04	5.748800E+02
-2.201219E-01	-8.083563E-04	5.753300E+02
-2.201219E-01	-8.083410E-04	5.757700E+02
-2.201219E-01	-8.084101E-04	5.762200E+02
-2.201219E-01	-8.085560E-04	5.766600E+02
-2.201219E-01	-8.085330E-04	5.771100E+02
-2.201219E-01	-8.087634E-04	5.775500E+02
-2.201219E-01	-8.088017E-04	5.779900E+02
-2.201142E-01	-8.090014E-04	5.784400E+02
-2.201142E-01	-8.090168E-04	5.788800E+02
-2.201142E-01	-8.091397E-04	5.797600E+02
-2.201219E-01	-8.091780E-04	5.802100E+02
-2.201066E-01	-8.091397E-04	5.806400E+02
-2.201066E-01	-8.091397E-04	5.810900E+02
-2.201142E-01	-8.092165E-04	5.815300E+02
-2.201142E-01	-8.092472E-04	5.819700E+02
-2.201142E-01	-8.090706E-04	5.824300E+02
-2.201142E-01	-8.092011E-04	5.828600E+02
-2.201142E-01	-8.093239E-04	5.833100E+02
-2.201219E-01	-8.093317E-04	5.837500E+02
-2.201142E-01	-8.093087E-04	5.842000E+02
-2.201066E-01	-8.094469E-04	5.846400E+02
-2.201066E-01	-8.094161E-04	5.850900E+02
-2.201066E-01	-8.095006E-04	5.855300E+02
-2.201142E-01	-8.094161E-04	5.859600E+02
-2.201142E-01	-8.094699E-04	5.864100E+02
-2.201219E-01	-8.093931E-04	5.868500E+02
-2.201142E-01	-8.093394E-04	5.873000E+02
-2.201142E-01	-8.093624E-04	5.877400E+02
-2.201066E-01	-8.093087E-04	5.881900E+02
-2.201142E-01	-8.094009E-04	5.886300E+02
-2.201142E-01	-8.094930E-04	5.890800E+02
-2.201066E-01	-8.094545E-04	5.899800E+02
-2.201142E-01	-8.095775E-04	5.904300E+02
-2.201066E-01	-8.096236E-04	5.908700E+02
-2.201142E-01	-8.097080E-04	5.913100E+02
-2.201142E-01	-8.097003E-04	5.917500E+02
-2.201066E-01	-8.097618E-04	5.922000E+02
-2.201066E-01	-8.097233E-04	5.926400E+02
-2.201066E-01	-8.098538E-04	5.930900E+02
-2.201066E-01	-8.098847E-04	5.935300E+02
-2.201142E-01	-8.097541E-04	5.939700E+02
-2.201142E-01	-8.097694E-04	5.944200E+02
-2.201142E-01	-8.098002E-04	5.948600E+02
-2.201142E-01	-8.098386E-04	5.953100E+02
-2.201142E-01	-8.100152E-04	5.957400E+02
-2.201066E-01	-8.101995E-04	5.961900E+02
-2.201142E-01	-8.103914E-04	5.966300E+02
-2.201142E-01	-8.104529E-04	5.970800E+02
-2.201142E-01	-8.104069E-04	5.975300E+02
-2.201142E-01	-8.104990E-04	5.979600E+02
-2.201142E-01	-8.104836E-04	5.984100E+02
-2.201142E-01	-8.107909E-04	5.988500E+02
-2.201142E-01	-8.107755E-04	5.997400E+02
-2.201142E-01	-8.107755E-04	6.001900E+02
-2.201142E-01	-8.106987E-04	6.006200E+02
-2.201142E-01	-8.106910E-04	6.010700E+02
-2.201142E-01	-8.106526E-04	6.015100E+02
-2.201066E-01	-8.105451E-04	6.019500E+02
-2.201142E-01	-8.106219E-04	6.024000E+02
-2.201066E-01	-8.107985E-04	6.028400E+02
-2.201142E-01	-8.108446E-04	6.032900E+02
-2.201142E-01	-8.107602E-04	6.037300E+02
-2.201066E-01	-8.107602E-04	6.041800E+02
-2.201142E-01	-8.107755E-04	6.046200E+02
-2.201142E-01	-8.106987E-04	6.050700E+02
-2.201066E-01	-8.106603E-04	6.055100E+02
-2.201142E-01	-8.106219E-04	6.059400E+02
-2.201142E-01	-8.109214E-04	6.063900E+02
-2.201142E-01	-8.108370E-04	6.068300E+02
-2.201142E-01	-8.108446E-04	6.072800E+02
-2.201142E-01	-8.109214E-04	6.077200E+02
-2.201142E-01	-8.106373E-04	6.081700E+02
-2.201142E-01	-8.105451E-04	6.086100E+02
-2.201066E-01	-8.102763E-04	6.090500E+02
-2.201066E-01	-8.104606E-04	6.099300E+02
-2.201066E-01	-8.105605E-04	6.103800E+02
-2.201142E-01	-8.106219E-04	6.108200E+02
-2.201066E-01	-8.107140E-04	6.112600E+02
-2.201142E-01	-8.105758E-04	6.117000E+02
-2.201066E-01	-8.104683E-04	6.121500E+02
-2.201142E-01	-8.103608E-04	6.125900E+02
-2.201142E-01	-8.104836E-04	6.130400E+02
-2.201142E-01	-8.108984E-04	6.134800E+02
-2.201142E-01	-8.110597E-04	6.139200E+02
-2.201142E-01	-8.112286E-04	6.143700E+02
-2.201142E-01	-8.112901E-04	6.148000E+02
-2.201142E-01	-8.114667E-04	6.152500E+02
-2.201219E-01	-8.114282E-04	6.156900E+02
-2.201066E-01	-8.113821E-04	6.161400E+02
-2.201142E-01	-8.116126E-04	6.165800E+02
-2.201066E-01	-8.116741E-04	6.170300E+02
-2.201142E-01	-8.117508E-04	6.174700E+02
-2.201142E-01	-8.116664E-04	6.179100E+02
-2.201142E-01	-8.115358E-04	6.183600E+02
-2.201219E-01	-8.114129E-04	6.187900E+02
-2.201066E-01	-8.114667E-04	6.192500E+02
-2.201066E-01	-8.110674E-04	6.201300E+02
-2.201142E-01	-8.111058E-04	6.205700E+02
-2.201142E-01	-8.109598E-04	6.210100E+02
-2.201142E-01	-8.111134E-04	6.214600E+02
-2.201219E-01	-8.112056E-04	6.218900E+02
-2.201142E-01	-8.113284E-04	6.223400E+02
-2.201142E-01	-8.113362E-04	6.227800E+02
-2.201142E-01	-8.113593E-04	6.232400E+02
-2.201142E-01	-8.114129E-04	6.236800E+02
-2.201066E-01	-8.112210E-04	6.241300E+02
-2.201142E-01	-8.109906E-04	6.245700E+02
-2.201219E-01	-8.110367E-04	6.250100E+02
-2.201142E-01	-8.111749E-04	6.254500E+02
-2.201142E-01	-8.112901E-04	6.258900E+02
-2.201142E-01	-8.114052E-04	6.263500E+02
-2.201142E-01	-8.114898E-04	6.267900E+02
-2.201142E-01	-8.116664E-04	6.272400E+02
-2.201142E-01	-8.119121E-04	6.276800E+02
-2.201142E-01	-8.120043E-04	6.281300E+02
-2.201219E-01	-8.120197E-04	6.285600E+02
-2.201142E-01	-8.117815E-04	6.290000E+02
-2.201142E-01	-8.115972E-04	6.298900E+02
-2.201142E-01	-8.115818E-04	6.303400E+02
-2.201142E-01	-8.117201E-04	6.307800E+02
-2.201142E-01	-8.117201E-04	6.312300E+02
-2.201142E-01	-8.116126E-04	6.316700E+02
-2.201219E-01	-8.116586E-04	6.321100E+02
-2.201142E-01	-8.115511E-04	6.325500E+02
-2.201142E-01	-8.114667E-04	6.329900E+02
-2.201142E-01	-8.114667E-04	6.334400E+02
-2.201142E-01	-8.115895E-04	6.338800E+02
-2.201142E-01	-8.115818E-04	6.343300E+02
-2.201142E-01	-8.115972E-04	6.347700E+02
-2.201066E-01	-8.117124E-04	6.352200E+02
-2.201066E-01	-8.115972E-04	6.356500E+02
-2.201142E-01	-8.117739E-04	6.361000E+02
-2.201142E-01	-8.116817E-04	6.365400E+02
-2.201142E-01	-8.117969E-04	6.369800E+02
-2.201142E-01	-8.117431E-04	6.374300E+02
-2.201219E-01	-8.118046E-04	6.378700E+02
-2.201142E-01	-8.116586E-04	6.383200E+02
-2.201066E-01	-8.116049E-04	6.387500E+02
-2.201066E-01	-8.116894E-04	6.392100E+02
-2.201142E-01	-8.115051E-04	6.401000E+02
-2.201219E-01	-8.116511E-04	6.405400E+02
-2.201142E-01	-8.114898E-04	6.409800E+02
-2.201142E-01	-8.112901E-04	6.414300E+02
-2.201142E-01	-8.108907E-04	6.418700E+02
-2.201142E-01	-8.107602E-04	6.423100E+02
-2.201142E-01	-8.104914E-04	6.427500E+02
-2.201219E-01	-8.102226E-04	6.432000E+02
-2.201142E-01	-8.101381E-04	6.436400E+02
-2.201142E-01	-8.102303E-04	6.440900E+02
-2.201142E-01	-8.101842E-04	6.445300E+02
-2.201142E-01	-8.100152E-04	6.449700E+02
-2.201142E-01	-8.101688E-04	6.454200E+02
-2.201142E-01	-8.101228E-04	6.458500E+02
-2.201142E-01	-8.101151E-04	6.463000E+02
-2.201142E-01	-8.100920E-04	6.467400E+02
-2.201142E-01	-8.099999E-04	6.471900E+02
-2.201142E-01	-8.101151E-04	6.476300E+02
-2.201066E-01	-8.100997E-04	6.480800E+02
-2.201142E-01	-8.099615E-04	6.485200E+02
-2.201066E-01	-8.097234E-04	6.489600E+02
-2.201066E-01	-8.097772E-04	6.498500E+02
-2.201142E-01	-8.097694E-04	6.503000E+02
-2.201142E-01	-8.097234E-04	6.507400E+02
-2.201142E-01	-8.097388E-04	6.511900E+02
-2.201142E-01	-8.096389E-04	6.516300E+02
-2.201142E-01	-8.096773E-04	6.520700E+02
-2.201142E-01	-8.095544E-04	6.525100E+02
-2.201142E-01	-8.094393E-04	6.529500E+02
-2.201142E-01	-8.094469E-04	6.534000E+02
-2.201142E-01	-8.096005E-04	6.538400E+02
-2.201142E-01	-8.094700E-04	6.542900E+02
-2.201142E-01	-8.095007E-04	6.547300E+02
-2.201142E-01	-8.094316E-04	6.551700E+02
-2.201142E-01	-8.095314E-04	6.556100E+02
-2.201142E-01	-8.096159E-04	6.560600E+02
-2.201142E-01	-8.094776E-04	6.565000E+02
-2.201142E-01	-8.093010E-04	6.569400E+02
-2.201066E-01	-8.091858E-04	6.573900E+02
-2.201142E-01	-8.093087E-04	6.578300E+02
-2.201066E-01	-8.091244E-04	6.582800E+02
-2.201142E-01	-8.092242E-04	6.587100E+02
-2.201066E-01	-8.089707E-04	6.591600E+02
-2.201142E-01	-8.091780E-04	6.600500E+02
-2.201066E-01	-8.092319E-04	6.604900E+02
-2.201066E-01	-8.090168E-04	6.609300E+02
-2.201142E-01	-8.091858E-04	6.613700E+02
-2.201142E-01	-8.090322E-04	6.618100E+02
-2.201142E-01	-8.089324E-04	6.622600E+02
-2.201142E-01	-8.088479E-04	6.627000E+02
-2.201142E-01	-8.087174E-04	6.631500E+02
-2.201142E-01	-8.089016E-04	6.635900E+02
-2.201142E-01	-8.088633E-04	6.640400E+02
-2.201142E-01	-8.087634E-04	6.644800E+02
-2.201142E-01	-8.088785E-04	6.649200E+02
-2.201142E-01	-8.088555E-04	6.653600E+02
-2.201142E-01	-8.088785E-04	6.658000E+02
-2.201142E-01	-8.088633E-04	6.662500E+02
-2.201142E-01	-8.090552E-04	6.666900E+02
-2.201142E-01	-8.089630E-04	6.671400E+02
-2.201142E-01	-8.089246E-04	6.675800E+02
-2.201066E-01	-8.087096E-04	6.680300E+02
-2.201142E-01	-8.087403E-04	6.684700E+02
-2.201219E-01	-8.088863E-04	6.689100E+02
-2.201142E-01	-8.088479E-04	6.697900E+02
-2.201142E-01	-8.087174E-04	6.702700E+02
-2.201142E-01	-8.087481E-04	6.707100E+02
-2.201142E-01	-8.086790E-04	6.711600E+02
-2.201066E-01	-8.089017E-04	6.716000E+02
-2.201066E-01	-8.089401E-04	6.720500E+02
-2.201142E-01	-8.087096E-04	6.724900E+02
-2.201142E-01	-8.086636E-04	6.729300E+02
-2.201142E-01	-8.086175E-04	6.733700E+02
-2.201142E-01	-8.085253E-04	6.738100E+02
-2.201142E-01	-8.084640E-04	6.742600E+02
-2.201142E-01	-8.085253E-04	6.747000E+02
-2.201066E-01	-8.085023E-04	6.751500E+02
-2.201219E-01	-8.083257E-04	6.755900E+02
-2.201142E-01	-8.083487E-04	6.760400E+02
-2.201142E-01	-8.083641E-04	6.764800E+02
-2.201066E-01	-8.084716E-04	6.769200E+02
-2.201066E-01	-8.083948E-04	6.773700E+02
-2.201142E-01	-8.084486E-04	6.778100E+02
-2.201142E-01	-8.086252E-04	6.782600E+02
-2.201142E-01	-8.085330E-04	6.787000E+02
-2.201066E-01	-8.083103E-04	6.791500E+02
-2.201066E-01	-8.083410E-04	6.800400E+02
-2.201142E-01	-8.083410E-04	6.804700E+02
-2.201142E-01	-8.084562E-04	6.809100E+02
-2.201066E-01	-8.084024E-04	6.813600E+02
-2.201066E-01	-8.082872E-04	6.818000E+02
-2.201142E-01	-8.083257E-04	6.822500E+02
-2.201066E-01	-8.082719E-04	6.826900E+02
-2.201142E-01	-8.083026E-04	6.831400E+02
-2.201066E-01	-8.083793E-04	6.835800E+02
-2.201066E-01	-8.083641E-04	6.840300E+02
-2.201142E-01	-8.083563E-04	6.844700E+02
-2.201142E-01	-8.081182E-04	6.849100E+02
-2.201066E-01	-8.080876E-04	6.853600E+02
-2.201142E-01	-8.080799E-04	6.858000E+02
-2.201142E-01	-8.082565E-04	6.862500E+02
-2.201142E-01	-8.081030E-04	6.866900E+02
-2.201142E-01	-8.081797E-04	6.871400E+02
-2.201066E-01	-8.080031E-04	6.875800E+02
-2.201066E-01	-8.080108E-04	6.880200E+02
-2.201142E-01	-8.080108E-04	6.884700E+02
-2.201142E-01	-8.080415E-04	6.889000E+02
-2.201142E-01	-8.080108E-04	6.897900E+02
-2.201142E-01	-8.079877E-04	6.902400E+02
-2.201142E-01	-8.080722E-04	6.906700E+02
-2.201142E-01	-8.079032E-04	6.911200E+02
-2.201142E-01	-8.079262E-04	6.915600E+02
-2.201142E-01	-8.077112E-04	6.920000E+02
-2.201066E-01	-8.077496E-04	6.924500E+02
-2.201142E-01	-8.079109E-04	6.928900E+02
-2.201142E-01	-8.079109E-04	6.933400E+02
-2.201142E-01	-8.078802E-04	6.937800E+02
-2.201142E-01	-8.078417E-04	6.942300E+02
-2.201142E-01	-8.080184E-04	6.946600E+02
-2.201142E-01	-8.081028E-04	6.951100E+02
-2.201142E-01	-8.079800E-04	6.955500E+02
-2.201142E-01	-8.080567E-04	6.959900E+02
-2.201142E-01	-8.082181E-04	6.964500E+02
-2.201142E-01	-8.082335E-04	6.968900E+02
-2.201142E-01	-8.081720E-04	6.973400E+02
-2.201066E-01	-8.074424E-04	6.977700E+02
-2.201066E-01	-8.054840E-04	6.982200E+02
-2.201066E-01	-8.052767E-04	6.986600E+02
-2.201142E-01	-8.054380E-04	6.991100E+02
-2.201142E-01	-8.054765E-04	6.999900E+02
-2.201142E-01	-8.053075E-04	7.004400E+02
-2.201142E-01	-8.053920E-04	7.008700E+02
-2.201142E-01	-8.053997E-04	7.013200E+02
-2.201066E-01	-8.051999E-04	7.017600E+02
-2.201142E-01	-8.050925E-04	7.022100E+02
-2.201066E-01	-8.049926E-04	7.026500E+02
-2.201142E-01	-8.049695E-04	7.031000E+02
-2.201142E-01	-8.050771E-04	7.035400E+02
-2.201142E-01	-8.049695E-04	7.039800E+02
-2.201142E-01	-8.049465E-04	7.044300E+02
-2.201142E-01	-8.050464E-04	7.048700E+02
-2.201066E-01	-8.049543E-04	7.053200E+02
-2.201066E-01	-8.048390E-04	7.057600E+02
-2.201142E-01	-8.049849E-04	7.062100E+02
-2.201142E-01	-8.052384E-04	7.066500E+02
-2.201142E-01	-8.051846E-04	7.071000E+02
-2.201142E-01	-8.050617E-04	7.075400E+02
-2.201142E-01	-8.051999E-04	7.079800E+02
-2.201142E-01	-8.051615E-04	7.084300E+02
-2.201219E-01	-8.051154E-04	7.088600E+02
-2.201219E-01	-8.051154E-04	7.097500E+02
-2.201219E-01	-8.051846E-04	7.102000E+02
-2.201219E-01	-8.052690E-04	7.106300E+02
-2.201142E-01	-8.052306E-04	7.110800E+02
-2.201219E-01	-8.052537E-04	7.115200E+02
-2.201219E-01	-8.053996E-04	7.119600E+02
-2.201142E-01	-8.053381E-04	7.124100E+02
-2.201142E-01	-8.053075E-04	7.128500E+02
-2.201142E-01	-8.053075E-04	7.133000E+02
-2.201219E-01	-8.052383E-04	7.137300E+02
-2.201219E-01	-8.053612E-04	7.141800E+02
-2.201219E-01	-8.053766E-04	7.146200E+02
-2.201219E-01	-8.053305E-04	7.150600E+02
-2.201219E-01	-8.052460E-04	7.155000E+02
-2.201219E-01	-8.053305E-04	7.159500E+02
-2.201219E-01	-8.052998E-04	7.164000E+02
-2.201142E-01	-8.051385E-04	7.168400E+02
-2.201219E-01	-8.051462E-04	7.172900E+02
-2.201219E-01	-8.051308E-04	7.177200E+02
-2.201219E-01	-8.051078E-04	7.181700E+02
-2.201219E-01	-8.050694E-04	7.186100E+02
-2.201142E-01	-8.051923E-04	7.190600E+02
-2.201066E-01	-8.052844E-04	7.199300E+02
-2.201142E-01	-8.052306E-04	7.203800E+02
-2.201142E-01	-8.052537E-04	7.208100E+02
-2.201142E-01	-8.051923E-04	7.212600E+02
-2.201142E-01	-8.051616E-04	7.217100E+02
-2.201142E-01	-8.052537E-04	7.221600E+02
-2.201142E-01	-8.051999E-04	7.226000E+02
-2.201066E-01	-8.051616E-04	7.230500E+02
-2.201142E-01	-8.051616E-04	7.234900E+02
-2.201142E-01	-8.050925E-04	7.239300E+02
-2.201142E-01	-8.051232E-04	7.243700E+02
-2.201142E-01	-8.050540E-04	7.248100E+02
-2.201142E-01	-8.050771E-04	7.252600E+02
-2.201142E-01	-8.049466E-04	7.257000E+02
-2.201142E-01	-8.049005E-04	7.261500E+02
-2.201142E-01	-8.050233E-04	7.265900E+02
-2.201142E-01	-8.050464E-04	7.270400E+02
-2.201142E-01	-8.049466E-04	7.274800E+02
-2.201066E-01	-8.048467E-04	7.279200E+02
-2.201142E-01	-8.049005E-04	7.283700E+02
-2.201142E-01	-8.049849E-04	7.288100E+02
-2.201142E-01	-8.048390E-04	7.292600E+02
-2.201066E-01	-8.048927E-04	7.301400E+02
-2.201142E-01	-8.049465E-04	7.305800E+02
-2.201066E-01	-8.050156E-04	7.310100E+02
-2.201142E-01	-8.050079E-04	7.314600E+02
-2.201142E-01	-8.048697E-04	7.319000E+02
-2.201142E-01	-8.047621E-04	7.323600E+02
-2.201142E-01	-8.048851E-04	7.328000E+02
-2.201142E-01	-8.048774E-04	7.332500E+02
-2.201142E-01	-8.049158E-04	7.336800E+02
-2.201142E-01	-8.048621E-04	7.341300E+02
-2.201142E-01	-8.049312E-04	7.345700E+02
-2.201142E-01	-8.048543E-04	7.350100E+02
-2.201142E-01	-8.047852E-04	7.354600E+02
-2.201142E-01	-8.047852E-04	7.359000E+02
-2.201066E-01	-8.047621E-04	7.363500E+02
-2.201142E-01	-8.047545E-04	7.367900E+02
-2.201142E-01	-8.047699E-04	7.372400E+02
-2.201219E-01	-8.046624E-04	7.376800E+02
-2.201142E-01	-8.046009E-04	7.381200E+02
-2.201066E-01	-8.045087E-04	7.385600E+02
-2.201142E-01	-8.045164E-04	7.390000E+02
-2.201066E-01	-8.044473E-04	7.398800E+02
-2.201066E-01	-8.044166E-04	7.403300E+02
-2.201142E-01	-8.044397E-04	7.407700E+02
-2.201142E-01	-8.044320E-04	7.412200E+02
-2.201142E-01	-8.044781E-04	7.416600E+02
-2.201066E-01	-8.044089E-04	7.421100E+02
-2.201142E-01	-8.044704E-04	7.425500E+02
-2.201066E-01	-8.045394E-04	7.429900E+02
-2.201142E-01	-8.045855E-04	7.434400E+02
-2.201142E-01	-8.046163E-04	7.438800E+02
-2.201142E-01	-8.046163E-04	7.443300E+02
-2.201142E-01	-8.045318E-04	7.447600E+02
-2.201066E-01	-8.044166E-04	7.452100E+02
-2.201066E-01	-8.043782E-04	7.456500E+02
-2.201142E-01	-8.043398E-04	7.461100E+02
-2.201142E-01	-8.043014E-04	7.465500E+02
-2.201066E-01	-8.042477E-04	7.469800E+02
-2.201142E-01	-8.042093E-04	7.474300E+02
-2.201142E-01	-8.041401E-04	7.478700E+02
-2.201142E-01	-8.041324E-04	7.483200E+02
-2.201066E-01	-8.041171E-04	7.487600E+02
-2.201142E-01	-8.041171E-04	7.492100E+02
-2.201142E-01	-8.042246E-04	7.501100E+02
-2.201066E-01	-8.041555E-04	7.505500E+02
-2.201142E-01	-8.042784E-04	7.509900E+02
-2.201142E-01	-8.043321E-04	7.514400E+02
-2.201219E-01	-8.044320E-04	7.518800E+02
-2.201142E-01	-8.043859E-04	7.523300E+02
-2.201066E-01	-8.043859E-04	7.527600E+02
-2.201142E-01	-8.043705E-04	7.532100E+02
-2.201066E-01	-8.043321E-04	7.536500E+02
-2.201066E-01	-8.043782E-04	7.541000E+02
-2.201066E-01	-8.043551E-04	7.545400E+02
-2.201219E-01	-8.044243E-04	7.549800E+02
-2.201142E-01	-8.042784E-04	7.554300E+02
-2.201066E-01	-8.043090E-04	7.558600E+02
-2.201142E-01	-8.042860E-04	7.563100E+02
-2.201142E-01	-8.042323E-04	7.567600E+02
-2.201142E-01	-8.041862E-04	7.572100E+02
-2.201142E-01	-8.041632E-04	7.576500E+02
-2.201142E-01	-8.041324E-04	7.581000E+02
-2.201142E-01	-8.040786E-04	7.585400E+02
-2.201142E-01	-8.041786E-04	7.589800E+02
-2.201066E-01	-8.042477E-04	7.598700E+02
-2.201066E-01	-8.041939E-04	7.603200E+02
-2.201142E-01	-8.040710E-04	7.607600E+02
-2.201142E-01	-8.040250E-04	7.612100E+02
-2.201142E-01	-8.040096E-04	7.616500E+02
-2.201142E-01	-8.039328E-04	7.621000E+02
-2.201066E-01	-8.039252E-04	7.625300E+02
-2.201066E-01	-8.038944E-04	7.629700E+02
-2.201066E-01	-8.038560E-04	7.634200E+02
-2.201142E-01	-8.039328E-04	7.638600E+02
-2.201066E-01	-8.040250E-04	7.643100E+02
-2.201066E-01	-8.040787E-04	7.647500E+02
-2.201066E-01	-8.040864E-04	7.652000E+02
-2.201142E-01	-8.040864E-04	7.656400E+02
-2.201142E-01	-8.041171E-04	7.660800E+02
-2.201142E-01	-8.041171E-04	7.665200E+02
-2.201142E-01	-8.040480E-04	7.669600E+02
-2.201142E-01	-8.040864E-04	7.674100E+02
-2.201066E-01	-8.041555E-04	7.678500E+02
-2.201066E-01	-8.041248E-04	7.683000E+02
-2.201066E-01	-8.040557E-04	7.687400E+02
-2.201066E-01	-8.040096E-04	7.692000E+02
-2.201142E-01	-8.039635E-04	7.700800E+02
-2.201142E-01	-8.038714E-04	7.705200E+02
-2.201066E-01	-8.037562E-04	7.709600E+02
-2.201066E-01	-8.037562E-04	7.714100E+02
-2.201066E-01	-8.037869E-04	7.718500E+02
-2.201142E-01	-8.037331E-04	7.723000E+02
-2.201066E-01	-8.037178E-04	7.727400E+02
-2.201066E-01	-8.036640E-04	7.731800E+02
-2.201066E-01	-8.037331E-04	7.736200E+02
-2.201066E-01	-8.036563E-04	7.740800E+02
-2.201142E-01	-8.035949E-04	7.745100E+02
-2.201142E-01	-8.036410E-04	7.749500E+02
-2.201142E-01	-8.035872E-04	7.754000E+02
-2.201142E-01	-8.035795E-04	7.758400E+02
-2.201142E-01	-8.035872E-04	7.762900E+02
-2.201142E-01	-8.035949E-04	7.767300E+02
-2.201142E-01	-8.035872E-04	7.771800E+02
-2.201142E-01	-8.034874E-04	7.776100E+02
-2.201066E-01	-8.034798E-04	7.780700E+02
-2.201142E-01	-8.035258E-04	7.785100E+02
-2.201142E-01	-8.032109E-04	7.789500E+02
-2.201142E-01	-8.033491E-04	7.798300E+02
-2.201142E-01	-8.033644E-04	7.802800E+02
-2.201142E-01	-8.033414E-04	7.807200E+02
-2.201142E-01	-8.033107E-04	7.811700E+02
-2.201142E-01	-8.033568E-04	7.816100E+02
-2.201142E-01	-8.032953E-04	7.820600E+02
-2.201142E-01	-8.032261E-04	7.825000E+02
-2.201066E-01	-8.031417E-04	7.829300E+02
-2.201142E-01	-8.032031E-04	7.833800E+02
-2.201066E-01	-8.031341E-04	7.838200E+02
-2.201142E-01	-8.031187E-04	7.842700E+02
-2.201066E-01	-8.031725E-04	7.847100E+02
-2.201142E-01	-8.032109E-04	7.851600E+02
-2.201142E-01	-8.031187E-04	7.856000E+02
-2.201142E-01	-8.031033E-04	7.860500E+02
-2.201142E-01	-8.030342E-04	7.864900E+02
-2.201142E-01	-8.031110E-04	7.869200E+02
-2.201142E-01	-8.031033E-04	7.873700E+02
-2.201066E-01	-8.031725E-04	7.878100E+02
-2.201142E-01	-8.031878E-04	7.882600E+02
-2.201142E-01	-8.030572E-04	7.887100E+02
-2.201142E-01	-8.030265E-04	7.891600E+02
-2.201142E-01	-8.029267E-04	7.900400E+02
-2.201142E-01	-8.029114E-04	7.904800E+02
-2.201142E-01	-8.028806E-04	7.909100E+02
-2.201142E-01	-8.028192E-04	7.913600E+02
-2.201142E-01	-8.027884E-04	7.918000E+02
-2.201142E-01	-8.027500E-04	7.922500E+02
-2.201142E-01	-8.027348E-04	7.926900E+02
-2.201066E-01	-8.027731E-04	7.931400E+02
-2.201066E-01	-8.026041E-04	7.935800E+02
-2.201066E-01	-8.025428E-04	7.940300E+02
-2.201142E-01	-8.026579E-04	7.944700E+02
-2.201142E-01	-8.024967E-04	7.949100E+02
-2.201142E-01	-8.025273E-04	7.953600E+02
-2.201066E-01	-8.024889E-04	7.958000E+02
-2.201142E-01	-8.025044E-04	7.962500E+02
-2.201066E-01	-8.026425E-04	7.966900E+02
-2.201142E-01	-8.025350E-04	7.971300E+02
-2.201142E-01	-8.026118E-04	7.975700E+02
-2.201142E-01	-8.026886E-04	7.980100E+02
-2.201142E-01	-8.027194E-04	7.984600E+02
-2.201142E-01	-8.026733E-04	7.989000E+02
-2.201066E-01	-8.027117E-04	7.997900E+02
-2.201142E-01	-8.026656E-04	8.002300E+02
-2.201142E-01	-8.026886E-04	8.006700E+02
-2.201066E-01	-8.026733E-04	8.011200E+02
-2.201142E-01	-8.028192E-04	8.015600E+02
-2.201142E-01	-8.027348E-04	8.020000E+02
-2.201066E-01	-8.027654E-04	8.024400E+02
-2.201142E-01	-8.026810E-04	8.028800E+02
-2.201066E-01	-8.026962E-04	8.033300E+02
-2.201142E-01	-8.026579E-04	8.037700E+02
-2.201142E-01	-8.025503E-04	8.042200E+02
-2.201142E-01	-8.025811E-04	8.046600E+02
-2.201142E-01	-8.027807E-04	8.051100E+02
-2.201066E-01	-8.026272E-04	8.055500E+02
-2.201142E-01	-8.025427E-04	8.059900E+02
-2.201142E-01	-8.026579E-04	8.064400E+02
-2.201142E-01	-8.025964E-04	8.068700E+02
-2.201142E-01	-8.025734E-04	8.073200E+02
-2.201066E-01	-8.025734E-04	8.077600E+02
-2.201142E-01	-8.025811E-04	8.082100E+02
-2.201142E-01	-8.026349E-04	8.086600E+02
-2.201142E-01	-8.027194E-04	8.091100E+02
-2.201142E-01	-8.028193E-04	8.099900E+02
-2.201142E-01	-8.026119E-04	8.104300E+02
-2.201142E-01	-8.026886E-04	8.108700E+02
-2.201066E-01	-8.026580E-04	8.113200E+02
-2.201219E-01	-8.027041E-04	8.117600E+02
-2.201142E-01	-8.026426E-04	8.122100E+02
-2.201066E-01	-8.026349E-04	8.126500E+02
-2.201066E-01	-8.026886E-04	8.130900E+02
-2.201066E-01	-8.026426E-04	8.135300E+02
-2.201142E-01	-8.025274E-04	8.139700E+02
-2.201142E-01	-8.024813E-04	8.144200E+02
-2.201142E-01	-8.026349E-04	8.148600E+02
-2.201142E-01	-8.026272E-04	8.153100E+02
-2.201142E-01	-8.026810E-04	8.157400E+02
-2.201142E-01	-8.024659E-04	8.161900E+02
-2.201142E-01	-8.025966E-04	8.166300E+02
-2.201142E-01	-8.024736E-04	8.170800E+02
-2.201066E-01	-8.024276E-04	8.175200E+02
-2.201142E-01	-8.022970E-04	8.179600E+02
-2.201066E-01	-8.022279E-04	8.184100E+02
-2.201066E-01	-8.022432E-04	8.188400E+02
-2.201066E-01	-8.023585E-04	8.197300E+02
-2.201066E-01	-8.021665E-04	8.201800E+02
-2.201066E-01	-8.023124E-04	8.206200E+02
-2.201142E-01	-8.022356E-04	8.210700E+02
-2.201066E-01	-8.022432E-04	8.215100E+02
-2.201066E-01	-8.021587E-04	8.219400E+02
-2.201219E-01	-8.023354E-04	8.223900E+02
-2.201142E-01	-8.022893E-04	8.228300E+02
-2.201142E-01	-8.024122E-04	8.232800E+02
-2.201142E-01	-8.023124E-04	8.237200E+02
-2.201142E-01	-8.022663E-04	8.241700E+02
-2.201142E-01	-8.024122E-04	8.246100E+02
-2.201066E-01	-8.024659E-04	8.250600E+02
-2.201142E-01	-8.021587E-04	8.255000E+02
-2.201142E-01	-8.021665E-04	8.259400E+02
-2.201142E-01	-8.021741E-04	8.263900E+02
-2.201142E-01	-8.020282E-04	8.268200E+02
-2.201066E-01	-8.019898E-04	8.272700E+02
-2.201142E-01	-8.020974E-04	8.277100E+02
-2.201142E-01	-8.020897E-04	8.281600E+02
-2.201142E-01	-8.021435E-04	8.286000E+02
-2.201142E-01	-8.019975E-04	8.290400E+02
-2.201142E-01	-8.021051E-04	8.299500E+02
-2.201066E-01	-8.019975E-04	8.304000E+02
-2.201066E-01	-8.020897E-04	8.308300E+02
-2.201066E-01	-8.020052E-04	8.312800E+02
-2.201066E-01	-8.021587E-04	8.317200E+02
-2.201066E-01	-8.020820E-04	8.321700E+02
-2.201066E-01	-8.020052E-04	8.326100E+02
-2.201066E-01	-8.019821E-04	8.330600E+02
-2.201066E-01	-8.018055E-04	8.335000E+02
-2.201066E-01	-8.016672E-04	8.339300E+02
-2.201142E-01	-8.018900E-04	8.343800E+02
-2.201142E-01	-8.017902E-04	8.348200E+02
-2.201066E-01	-8.018209E-04	8.352700E+02
-2.201142E-01	-8.019361E-04	8.357100E+02
-2.201142E-01	-8.019514E-04	8.361700E+02
-2.201142E-01	-8.018439E-04	8.366100E+02
-2.201142E-01	-8.018209E-04	8.370600E+02
-2.201142E-01	-8.019668E-04	8.375000E+02
-2.201142E-01	-8.019975E-04	8.379400E+02
-2.201142E-01	-8.020052E-04	8.383800E+02
-2.201142E-01	-8.017287E-04	8.388200E+02
-2.201142E-01	-8.017747E-04	8.397100E+02
-2.201142E-01	-8.017593E-04	8.401600E+02
-2.201142E-01	-8.016826E-04	8.405900E+02
-2.201066E-01	-8.018054E-04	8.410400E+02
-2.201142E-01	-8.018592E-04	8.414800E+02
-2.201142E-01	-8.016902E-04	8.419200E+02
-2.201142E-01	-8.016672E-04	8.423700E+02
-2.201142E-01	-8.019437E-04	8.428100E+02
-2.201142E-01	-8.018438E-04	8.432600E+02
-2.201142E-01	-8.019821E-04	8.436900E+02
-2.201142E-01	-8.018285E-04	8.441400E+02
-2.201142E-01	-8.020666E-04	8.445800E+02
-2.201142E-01	-8.019744E-04	8.450300E+02
-2.201219E-01	-8.018438E-04	8.454700E+02
-2.201142E-01	-8.016902E-04	8.459100E+02
-2.201142E-01	-8.016442E-04	8.463600E+02
-2.201219E-01	-8.018899E-04	8.468000E+02
-2.201142E-01	-8.017671E-04	8.472400E+02
-2.201219E-01	-8.019437E-04	8.476800E+02
-2.201142E-01	-8.018976E-04	8.481300E+02
-2.201219E-01	-8.016902E-04	8.485700E+02
-2.201142E-01	-8.016442E-04	8.490100E+02
-2.201142E-01	-8.015827E-04	8.499000E+02
-2.201219E-01	-8.016211E-04	8.503400E+02
-2.201142E-01	-8.014982E-04	8.507800E+02
-2.201142E-01	-8.014599E-04	8.512300E+02
-2.201142E-01	-8.015366E-04	8.516700E+02
-2.201142E-01	-8.014445E-04	8.521200E+02
-2.201142E-01	-8.013677E-04	8.525600E+02
-2.201219E-01	-8.012371E-04	8.530000E+02
-2.201142E-01	-8.013984E-04	8.534500E+02
-2.201142E-01	-8.013139E-04	8.538800E+02
-2.201142E-01	-8.013216E-04	8.543300E+02
-2.201142E-01	-8.013600E-04	8.547700E+02
-2.201142E-01	-8.013062E-04	8.552200E+02
-2.201219E-01	-8.014982E-04	8.556600E+02
-2.201142E-01	-8.015904E-04	8.561100E+02
-2.201142E-01	-8.016826E-04	8.565500E+02
-2.201142E-01	-8.015443E-04	8.569900E+02
-2.201219E-01	-8.015981E-04	8.574400E+02
-2.201142E-01	-8.015597E-04	8.578800E+02
-2.201142E-01	-8.016058E-04	8.583300E+02
-2.201219E-01	-8.016671E-04	8.587700E+02
-2.201142E-01	-8.018439E-04	8.592200E+02
-2.201142E-01	-8.018439E-04	8.601000E+02
-2.201142E-01	-8.017364E-04	8.605400E+02
-2.201219E-01	-8.016826E-04	8.609800E+02
-2.201142E-01	-8.013446E-04	8.614300E+02
-2.201142E-01	-8.014983E-04	8.618700E+02
-2.201142E-01	-8.014061E-04	8.623200E+02
-2.201142E-01	-8.013063E-04	8.627600E+02
-2.201142E-01	-8.012526E-04	8.632100E+02
-2.201142E-01	-8.012679E-04	8.636500E+02
-2.201142E-01	-8.012141E-04	8.641000E+02
-2.201142E-01	-8.011680E-04	8.645300E+02
-2.201142E-01	-8.011988E-04	8.649700E+02
-2.201142E-01	-8.011605E-04	8.654200E+02
-2.201142E-01	-8.009607E-04	8.658600E+02
-2.201142E-01	-8.009453E-04	8.663100E+02
-2.201219E-01	-8.009914E-04	8.667500E+02
-2.201219E-01	-8.009914E-04	8.672000E+02
-2.201142E-01	-8.009837E-04	8.676300E+02
-2.201142E-01	-8.010759E-04	8.680900E+02
-2.201219E-01	-8.010375E-04	8.685200E+02
-2.201142E-01	-8.008992E-04	8.689600E+02
-2.201219E-01	-8.009453E-04	8.698500E+02
-2.201142E-01	-8.008225E-04	8.703000E+02
-2.201219E-01	-8.008762E-04	8.707300E+02
-2.201142E-01	-8.008762E-04	8.711800E+02
-2.201142E-01	-8.009607E-04	8.716200E+02
-2.201219E-01	-8.009223E-04	8.720800E+02
-2.201142E-01	-8.007995E-04	8.725200E+02
-2.201142E-01	-8.008762E-04	8.729600E+02
-2.201142E-01	-8.008609E-04	8.734100E+02
-2.201142E-01	-8.008762E-04	8.738400E+02
-2.201142E-01	-8.007918E-04	8.742900E+02
-2.201142E-01	-8.008225E-04	8.747300E+02
-2.201142E-01	-8.008301E-04	8.751800E+02
-2.201142E-01	-8.006919E-04	8.756200E+02
-2.201142E-01	-8.006612E-04	8.760700E+02
-2.201142E-01	-8.006151E-04	8.765000E+02
-2.201142E-01	-8.006381E-04	8.769400E+02
-2.201142E-01	-8.005998E-04	8.773900E+02
-2.201142E-01	-8.007073E-04	8.778300E+02
-2.201142E-01	-8.006996E-04	8.782800E+02
-2.201142E-01	-8.006151E-04	8.787200E+02
-2.201142E-01	-8.004845E-04	8.791700E+02
-2.201066E-01	-8.004845E-04	8.800500E+02
-2.201142E-01	-8.004845E-04	8.804900E+02
-2.201142E-01	-8.005459E-04	8.809300E+02
-2.201142E-01	-8.005459E-04	8.813800E+02
-2.201142E-01	-8.006381E-04	8.818200E+02
-2.201142E-01	-8.006151E-04	8.822700E+02
-2.201066E-01	-8.005229E-04	8.827100E+02
-2.201142E-01	-8.005536E-04	8.831500E+02
-2.201142E-01	-8.004692E-04	8.835900E+02
-2.201066E-01	-8.005075E-04	8.840400E+02
-2.201066E-01	-8.004615E-04	8.844800E+02
-2.201066E-01	-8.004692E-04	8.849200E+02
-2.201066E-01	-8.004461E-04	8.853700E+02
-2.201142E-01	-8.004998E-04	8.858000E+02
-2.201066E-01	-8.004308E-04	8.862500E+02
-2.201142E-01	-8.004461E-04	8.866900E+02
-2.201142E-01	-8.004692E-04	8.871400E+02
-2.201142E-01	-8.003616E-04	8.875800E+02
-2.201142E-01	-8.003463E-04	8.880300E+02
-2.201142E-01	-8.004000E-04	8.884700E+02
-2.201142E-01	-8.003924E-04	8.889100E+02
-2.201142E-01	-8.004308E-04	8.897900E+02
-2.201219E-01	-8.004385E-04	8.902400E+02
-2.201219E-01	-8.003078E-04	8.906800E+02
-2.201142E-01	-8.003155E-04	8.911300E+02
-2.201219E-01	-8.004308E-04	8.915700E+02
-2.201219E-01	-8.004154E-04	8.920100E+02
-2.201142E-01	-8.003924E-04	8.924600E+02
-2.201219E-01	-8.003616E-04	8.929000E+02
-2.201142E-01	-8.003309E-04	8.933500E+02
-2.201219E-01	-8.003847E-04	8.937900E+02
-2.201142E-01	-8.003924E-04	8.942400E+02
-2.201142E-01	-8.004538E-04	8.946800E+02
-2.201142E-01	-8.004615E-04	8.951300E+02
-2.201142E-01	-8.003309E-04	8.955700E+02
-2.201142E-01	-8.003386E-04	8.960000E+02
-2.201142E-01	-8.003539E-04	8.964500E+02
-2.201142E-01	-8.003463E-04	8.968900E+02
-2.201219E-01	-8.004000E-04	8.973400E+02
-2.201142E-01	-8.004691E-04	8.977800E+02
-2.201219E-01	-8.004615E-04	8.982300E+02
-2.201219E-01	-8.004615E-04	8.986700E+02
-2.201066E-01	-8.004154E-04	8.991300E+02
-2.201142E-01	-8.004538E-04	9.000000E+02
