CORRW ASCII
  CorrWare for Windows: Version 3.5f
  Potentiostatic	[-0.05 Ref,1 Hour][default]	IV_-50mV_1.cor
  Date: 11-05-2019    Time: 01:00:25
   
   
  Open Circuit Potential (V): 0.0021
  Begin Information:          Cell Information
    Surface Area:             1
    Density:                  0
    Weight:                   0
    Polarity:                 0
    PolarityI:                0
    Corrosion Unit Type:      0
    Reference Type:           0
    Reference Potential:      0
    User-Defined Potential:   0
    Stern-Geary:              26
  End Information:            Cell Information
  Begin Pstat:                1287
    Pstat Title:              Instrument #1
    Booster Type:             0
    Booster Name:             None
    Current Range:            0
    Current Limit:            0
    Current LimitType:        0
    Sweep Type:               0
    Use Error Beep:           1
    Auxilary Type:            0
    iR Comp. Type:            0
    iR Ohms:                  0
    iR Time:                  27
    iR Ratio:                 255
    LP Filter Type:           2
    Drift Correction:         1
    Null Correction:          0
    Pstat Bandwidth Type:     2
    Gstat Bandwidth Type:     2
    External Input:           0
    SafetyMinV:               0
    SafetyMaxV:               10
    SafetyMinI:               0
    SafetyMaxI:               4
    SafetyMinQ:               0
    SafetyMaxQ:               1000
    SafetyMinT:               0
    SafetyMaxT:               50
    SafetyChT:                0
    SafetyMinVUse:            0
    SafetyMaxVUse:            0
    SafetyMinIUse:            0
    SafetyMaxIUse:            0
    SafetyMinQUse:            0
    SafetyMaxQUse:            0
    SafetyMinTUse:            0
    SafetyMaxTUse:            0
  End Pstat:                  1287
  Begin Experiment:           Potentiostatic	[-0.05 Ref,1 Hour][default]	IV_-50mV_1.cor
    Data File:                Z:\191101_Amezawa\fr_XAS\TPB2\100% O2\Electrochem\IV_-50mV_1.cor
    Data Append:              0
    Comment Lines:            0
    Potential:                -0.05
    Potential Type:           1
    Total Time:               1
    Time Units:               2
    Time Marker:              -1
    Measure Rate Type:        1
    Measure Rate #1:          2000
    Measure Rate #2:          600
    Measure Rate #3:          0.1
    Measure Rate #4:          2
    Use Threshold:            0
    Threshold I_Min:          -15
    Threshold I_Max:          15
    Threshold Delta:          5
    Threshold Time:           60
    Copy AuxV:                0
    Axes Type:                1
    Use Custom Pstat:         0
  End Experiment:             Potentiostatic	[-0.05 Ref,1 Hour][default]	IV_-50mV_1.cor
  Data Points:                151
  E(Volts)	I(A/cm2)	T(Seconds)
End Comments
-7.665289E-02	-8.179024E-05	0.000000E+00
-4.967113E-02	-6.695653E-05	9.300000E-01
-4.965118E-02	-6.689740E-05	1.380000E+00
-4.967343E-02	-6.673763E-05	1.820000E+00
-4.966960E-02	-6.654023E-05	2.280000E+00
-4.966345E-02	-6.634821E-05	2.720000E+00
-4.967574E-02	-6.617692E-05	3.170000E+00
-4.967574E-02	-6.608014E-05	3.610000E+00
-4.968418E-02	-6.584280E-05	4.080000E+00
-4.967497E-02	-6.574141E-05	4.520000E+00
-4.964811E-02	-6.553709E-05	4.980000E+00
-5.012248E-02	-6.564723E-05	5.570000E+00
-4.967343E-02	-6.570991E-05	6.080000E+00
-4.968956E-02	-6.562004E-05	6.520000E+00
-4.971028E-02	-6.550713E-05	6.970000E+00
-4.968341E-02	-6.535812E-05	7.410000E+00
-4.969339E-02	-6.530665E-05	7.840000E+00
-5.012095E-02	-6.492532E-05	8.570000E+00
-4.969569E-02	-6.501094E-05	9.070000E+00
-4.968034E-02	-6.491723E-05	9.960000E+00
-4.969108E-02	-6.487806E-05	1.040000E+01
-4.970183E-02	-6.484810E-05	1.083000E+01
-4.968725E-02	-6.480124E-05	1.128000E+01
-4.968341E-02	-6.466145E-05	1.172000E+01
-4.968034E-02	-6.465761E-05	1.217000E+01
-4.970643E-02	-6.469755E-05	1.261000E+01
-4.970874E-02	-6.464148E-05	1.306000E+01
-4.970030E-02	-6.464148E-05	1.350000E+01
-4.969877E-02	-6.457389E-05	1.394000E+01
-4.969492E-02	-6.453395E-05	1.438000E+01
-4.970490E-02	-6.449861E-05	1.482000E+01
-4.970951E-02	-6.449401E-05	1.527000E+01
-4.966883E-02	-6.441182E-05	1.571000E+01
-4.968648E-02	-6.437419E-05	1.616000E+01
-4.970030E-02	-6.443178E-05	1.660000E+01
-4.970951E-02	-6.440029E-05	1.705000E+01
-4.974866E-02	-6.441796E-05	1.748000E+01
-4.971872E-02	-6.437879E-05	1.793000E+01
-4.971949E-02	-6.436343E-05	1.837000E+01
-4.971718E-02	-6.428816E-05	1.881000E+01
-4.970951E-02	-6.428585E-05	1.970000E+01
-4.969723E-02	-6.421596E-05	2.015000E+01
-4.969262E-02	-6.418523E-05	2.058000E+01
-4.969723E-02	-6.419521E-05	2.103000E+01
-4.968802E-02	-6.414375E-05	2.147000E+01
-4.968802E-02	-6.421212E-05	2.192000E+01
-4.970260E-02	-6.417908E-05	2.236000E+01
-4.969262E-02	-6.412224E-05	2.280000E+01
-4.970797E-02	-6.412379E-05	2.325000E+01
-4.970030E-02	-6.411380E-05	2.369000E+01
-4.962891E-02	-6.408460E-05	2.414000E+01
-4.956597E-02	-6.401164E-05	2.458000E+01
-4.957135E-02	-6.402930E-05	2.503000E+01
-4.954448E-02	-6.395557E-05	2.547000E+01
-4.958516E-02	-6.406157E-05	2.592000E+01
-4.958669E-02	-6.401932E-05	2.635000E+01
-4.957979E-02	-6.401932E-05	2.679000E+01
-5.012248E-02	-6.468724E-05	2.754000E+01
-4.957594E-02	-6.448248E-05	2.809000E+01
-5.012094E-02	-6.474869E-05	2.882000E+01
-4.954908E-02	-6.430044E-05	2.933000E+01
-4.955062E-02	-6.430044E-05	3.021000E+01
-4.956366E-02	-6.431043E-05	3.065000E+01
-4.956520E-02	-6.425743E-05	3.110000E+01
-4.958592E-02	-6.425667E-05	3.153000E+01
-5.012248E-02	-6.491764E-05	3.225000E+01
-4.957441E-02	-6.472367E-05	3.278000E+01
-4.955675E-02	-6.458004E-05	3.323000E+01
-4.958746E-02	-6.461767E-05	3.367000E+01
-5.012094E-02	-6.519412E-05	3.425000E+01
-4.956059E-02	-6.505779E-05	3.478000E+01
-4.954677E-02	-6.490263E-05	3.523000E+01
-4.954677E-02	-6.482736E-05	3.567000E+01
-5.012171E-02	-6.477941E-05	3.635000E+01
-4.953833E-02	-6.421519E-05	3.684000E+01
-4.953680E-02	-6.431351E-05	3.729000E+01
-5.012171E-02	-6.405750E-05	3.807000E+01
-4.955062E-02	-6.493489E-05	3.858000E+01
-4.955906E-02	-6.489342E-05	3.903000E+01
-4.957825E-02	-6.484272E-05	3.991000E+01
-5.012401E-02	-6.520947E-05	4.071000E+01
-5.012248E-02	-5.723013E-05	4.161000E+01
-4.957364E-02	-6.390641E-05	4.211000E+01
-5.012248E-02	-5.619335E-05	4.265000E+01
-4.957518E-02	-6.370209E-05	4.320000E+01
-4.953987E-02	-6.409767E-05	4.363000E+01
-4.953373E-02	-6.439031E-05	4.409000E+01
-4.955906E-02	-6.460615E-05	4.453000E+01
-4.950994E-02	-6.461229E-05	4.498000E+01
-5.012171E-02	-6.345080E-05	4.566000E+01
-4.957979E-02	-6.477591E-05	4.620000E+01
-4.956444E-02	-6.474902E-05	4.664000E+01
-5.012094E-02	-6.499444E-05	4.723000E+01
-4.953373E-02	-6.511770E-05	4.773000E+01
-4.954294E-02	-6.515150E-05	4.818000E+01
-4.953680E-02	-6.504704E-05	4.862000E+01
-5.012248E-02	-6.546291E-05	4.930000E+01
-4.956060E-02	-6.511003E-05	5.030000E+01
-4.957211E-02	-6.511156E-05	5.074000E+01
-4.956290E-02	-6.502785E-05	5.119000E+01
-4.955829E-02	-6.496946E-05	5.163000E+01
-4.954448E-02	-6.491569E-05	5.208000E+01
-4.954909E-02	-6.482122E-05	5.252000E+01
-4.955292E-02	-6.478051E-05	5.297000E+01
-4.955599E-02	-6.477283E-05	5.340000E+01
-4.956751E-02	-6.481277E-05	5.384000E+01
-5.012402E-02	-6.540915E-05	5.469000E+01
-4.956827E-02	-6.436343E-05	5.525000E+01
-4.954909E-02	-6.448249E-05	5.569000E+01
-4.954064E-02	-6.457312E-05	5.614000E+01
-5.012402E-02	-6.343544E-05	5.678000E+01
-4.956290E-02	-6.421903E-05	5.729000E+01
-4.955675E-02	-6.440261E-05	5.773000E+01
-4.956597E-02	-6.453011E-05	5.818000E+01
-4.954448E-02	-6.450092E-05	5.862000E+01
-4.953296E-02	-6.452780E-05	5.907000E+01
-4.954755E-02	-6.455008E-05	5.996000E+01
-4.957825E-02	-6.460922E-05	6.040000E+01
-4.956521E-02	-6.459693E-05	6.083000E+01
-5.013092E-02	-4.253861E-05	6.151000E+01
-5.012325E-02	-5.506441E-05	6.241000E+01
-4.954525E-02	-6.412455E-05	6.295000E+01
-4.952222E-02	-6.424514E-05	6.340000E+01
-4.956521E-02	-6.449554E-05	6.383000E+01
-4.955753E-02	-6.455084E-05	6.428000E+01
-4.958593E-02	-6.460000E-05	6.472000E+01
-5.012325E-02	-6.445685E-05	6.528000E+01
-4.956751E-02	-6.483735E-05	6.578000E+01
-5.012095E-02	-6.490228E-05	6.638000E+01
-4.958133E-02	-6.397477E-05	6.688000E+01
-4.953911E-02	-6.412455E-05	6.732000E+01
-4.954448E-02	-6.428661E-05	6.777000E+01
-5.012248E-02	-6.285945E-05	6.829000E+01
-4.958516E-02	-6.363588E-04	6.878000E+01
-4.955368E-02	-6.464915E-05	6.973000E+01
-4.956981E-02	-6.480048E-05	7.018000E+01
-4.955599E-02	-6.478742E-05	7.062000E+01
-4.955675E-02	-6.484042E-05	7.108000E+01
-4.954677E-02	-6.471675E-05	7.152000E+01
-4.956213E-02	-6.480124E-05	7.197000E+01
-4.957901E-02	-6.476668E-05	7.240000E+01
-4.954677E-02	-6.470754E-05	7.284000E+01
-5.012094E-02	-6.490228E-05	7.357000E+01
-4.952990E-02	-6.504780E-05	7.413000E+01
-4.955215E-02	-6.502477E-05	7.457000E+01
-5.012171E-02	-6.447221E-05	7.517000E+01
-5.011710E-02	1.751002E-06	7.590000E+01
-4.961817E-02	-6.568764E-05	7.645000E+01
-4.951147E-02	-6.593650E-05	7.690000E+01
-5.012094E-02	-6.555507E-05	7.755000E+01
-4.952068E-02	-6.572988E-05	7.810000E+01
