CORRW ASCII
  CorrWare for Windows: Version 3.5f
  Potentiostatic	[-0.25 Ref,1 Hour][default]	IV_-250mV_1.cor
  Date: 11-05-2019    Time: 01:04:41
   
   
  Open Circuit Potential (V): 0.0021
  Begin Information:          Cell Information
    Surface Area:             1
    Density:                  0
    Weight:                   0
    Polarity:                 0
    PolarityI:                0
    Corrosion Unit Type:      0
    Reference Type:           0
    Reference Potential:      0
    User-Defined Potential:   0
    Stern-Geary:              26
  End Information:            Cell Information
  Begin Pstat:                1287
    Pstat Title:              Instrument #1
    Booster Type:             0
    Booster Name:             None
    Current Range:            0
    Current Limit:            0
    Current LimitType:        0
    Sweep Type:               0
    Use Error Beep:           1
    Auxilary Type:            0
    iR Comp. Type:            0
    iR Ohms:                  0
    iR Time:                  27
    iR Ratio:                 255
    LP Filter Type:           2
    Drift Correction:         1
    Null Correction:          0
    Pstat Bandwidth Type:     2
    Gstat Bandwidth Type:     2
    External Input:           0
    SafetyMinV:               0
    SafetyMaxV:               10
    SafetyMinI:               0
    SafetyMaxI:               4
    SafetyMinQ:               0
    SafetyMaxQ:               1000
    SafetyMinT:               0
    SafetyMaxT:               50
    SafetyChT:                0
    SafetyMinVUse:            0
    SafetyMaxVUse:            0
    SafetyMinIUse:            0
    SafetyMaxIUse:            0
    SafetyMinQUse:            0
    SafetyMaxQUse:            0
    SafetyMinTUse:            0
    SafetyMaxTUse:            0
  End Pstat:                  1287
  Begin Experiment:           Potentiostatic	[-0.25 Ref,1 Hour][default]	IV_-250mV_1.cor
    Data File:                Z:\191101_Amezawa\fr_XAS\TPB2\100% O2\Electrochem\IV_-250mV_1.cor
    Data Append:              0
    Comment Lines:            0
    Potential:                -0.25
    Potential Type:           1
    Total Time:               1
    Time Units:               2
    Time Marker:              -1
    Measure Rate Type:        1
    Measure Rate #1:          2000
    Measure Rate #2:          600
    Measure Rate #3:          0.1
    Measure Rate #4:          2
    Use Threshold:            0
    Threshold I_Min:          -15
    Threshold I_Max:          15
    Threshold Delta:          5
    Threshold Time:           60
    Copy AuxV:                0
    Axes Type:                1
    Use Custom Pstat:         0
  End Experiment:             Potentiostatic	[-0.25 Ref,1 Hour][default]	IV_-250mV_1.cor
  Data Points:                106
  E(Volts)	I(A/cm2)	T(Seconds)
End Comments
-2.501844E-01	-1.209082E-03	0.000000E+00
-2.501614E-01	-1.203445E-03	8.900000E-01
-2.501614E-01	-1.203998E-03	1.330000E+00
-2.501614E-01	-1.205150E-03	1.760000E+00
-2.501614E-01	-1.206679E-03	2.210000E+00
-2.501614E-01	-1.208330E-03	2.650000E+00
-2.501614E-01	-1.210104E-03	3.100000E+00
-2.501614E-01	-1.211909E-03	3.540000E+00
-2.501537E-01	-1.213759E-03	3.990000E+00
-2.501614E-01	-1.215533E-03	4.430000E+00
-2.501614E-01	-1.217269E-03	4.880000E+00
-2.501614E-01	-1.218867E-03	5.320000E+00
-2.501614E-01	-1.220433E-03	5.760000E+00
-2.501537E-01	-1.222031E-03	6.210000E+00
-2.501537E-01	-1.223597E-03	6.650000E+00
-2.501614E-01	-1.225095E-03	7.100000E+00
-2.501614E-01	-1.226308E-03	7.530000E+00
-2.501537E-01	-1.227729E-03	7.980000E+00
-2.501537E-01	-1.229073E-03	8.420000E+00
-2.501614E-01	-1.230425E-03	8.860000E+00
-2.501614E-01	-1.231715E-03	9.310000E+00
-2.501768E-01	-1.233043E-03	9.750000E+00
-2.501768E-01	-1.235409E-03	1.063000E+01
-2.501768E-01	-1.236630E-03	1.108000E+01
-2.501691E-01	-1.237774E-03	1.152000E+01
-2.501691E-01	-1.238942E-03	1.197000E+01
-2.501768E-01	-1.240117E-03	1.241000E+01
-2.501691E-01	-1.241192E-03	1.286000E+01
-2.501691E-01	-1.242321E-03	1.330000E+01
-2.501691E-01	-1.243388E-03	1.374000E+01
-2.501691E-01	-1.244440E-03	1.419000E+01
-2.501691E-01	-1.245446E-03	1.463000E+01
-2.501768E-01	-1.246452E-03	1.508000E+01
-2.501768E-01	-1.247366E-03	1.551000E+01
-2.501691E-01	-1.248311E-03	1.596000E+01
-2.501768E-01	-1.249233E-03	1.640000E+01
-2.501768E-01	-1.250169E-03	1.685000E+01
-2.501768E-01	-1.251030E-03	1.729000E+01
-2.501691E-01	-1.251936E-03	1.773000E+01
-2.501691E-01	-1.252819E-03	1.818000E+01
-2.501768E-01	-1.253656E-03	1.862000E+01
-2.501691E-01	-1.254470E-03	1.907000E+01
-2.501691E-01	-1.255277E-03	1.951000E+01
-2.501768E-01	-1.256060E-03	1.996000E+01
-2.501691E-01	-1.257611E-03	2.085000E+01
-2.501691E-01	-1.258356E-03	2.128000E+01
-2.501768E-01	-1.259070E-03	2.172000E+01
-2.501768E-01	-1.259800E-03	2.217000E+01
-2.501768E-01	-1.260483E-03	2.261000E+01
-2.501768E-01	-1.261252E-03	2.306000E+01
-2.501768E-01	-1.261973E-03	2.350000E+01
-2.501691E-01	-1.262595E-03	2.395000E+01
-2.501768E-01	-1.263271E-03	2.439000E+01
-2.501691E-01	-1.263932E-03	2.483000E+01
-2.501768E-01	-1.264608E-03	2.527000E+01
-2.501768E-01	-1.265276E-03	2.571000E+01
-2.501691E-01	-1.265913E-03	2.616000E+01
-2.501691E-01	-1.266551E-03	2.660000E+01
-2.501768E-01	-1.267173E-03	2.705000E+01
-2.501768E-01	-1.267779E-03	2.749000E+01
-2.501768E-01	-1.268355E-03	2.793000E+01
-2.501691E-01	-1.268924E-03	2.837000E+01
-2.501691E-01	-1.269484E-03	2.881000E+01
-2.501768E-01	-1.270114E-03	2.926000E+01
-2.501768E-01	-1.270452E-03	2.970000E+01
-2.501691E-01	-1.271512E-03	3.058000E+01
-2.501691E-01	-1.272080E-03	3.103000E+01
-2.501691E-01	-1.272625E-03	3.147000E+01
-2.501768E-01	-1.273155E-03	3.192000E+01
-2.501768E-01	-1.273724E-03	3.236000E+01
-2.501768E-01	-1.274254E-03	3.280000E+01
-2.501691E-01	-1.274768E-03	3.325000E+01
-2.501768E-01	-1.275275E-03	3.369000E+01
-2.501768E-01	-1.275759E-03	3.413000E+01
-2.501768E-01	-1.276273E-03	3.457000E+01
-2.501768E-01	-1.276773E-03	3.502000E+01
-2.501691E-01	-1.277264E-03	3.546000E+01
-2.501768E-01	-1.277717E-03	3.591000E+01
-2.501768E-01	-1.278209E-03	3.635000E+01
-2.501768E-01	-1.278639E-03	3.679000E+01
-2.501691E-01	-1.279100E-03	3.724000E+01
-2.501691E-01	-1.279560E-03	3.767000E+01
-2.501768E-01	-1.279998E-03	3.812000E+01
-2.501768E-01	-1.280497E-03	3.856000E+01
-2.501768E-01	-1.280943E-03	3.901000E+01
-2.501691E-01	-1.281365E-03	3.945000E+01
-2.501691E-01	-1.281795E-03	3.990000E+01
-2.501768E-01	-1.282555E-03	4.077000E+01
-2.501691E-01	-1.282993E-03	4.123000E+01
-2.501691E-01	-1.283415E-03	4.166000E+01
-2.501691E-01	-1.283838E-03	4.211000E+01
-2.501691E-01	-1.284183E-03	4.256000E+01
-2.501691E-01	-1.284544E-03	4.301000E+01
-2.501768E-01	-1.285044E-03	4.345000E+01
-2.501768E-01	-1.285405E-03	4.390000E+01
-2.501768E-01	-1.285735E-03	4.433000E+01
-2.501844E-01	-1.286050E-03	4.477000E+01
-2.501768E-01	-1.286403E-03	4.522000E+01
-2.501768E-01	-1.286764E-03	4.566000E+01
-2.501691E-01	-1.287117E-03	4.611000E+01
-2.501691E-01	-1.287517E-03	4.655000E+01
-2.501691E-01	-1.287847E-03	4.700000E+01
-2.501768E-01	-1.288146E-03	4.744000E+01
-2.501691E-01	-1.288461E-03	4.788000E+01
-2.501768E-01	-1.288768E-03	4.832000E+01
-2.501768E-01	-1.289106E-03	4.876000E+01
