CORRW ASCII
  CorrWare for Windows: Version 3.5f
  Potentiostatic	[-0.22 Ref,3600 Sec][default]	IV_-220mV_1.cor
  Date: 11-05-2019    Time: 01:20:15
   
   
  Open Circuit Potential (V): 0.0021
  Begin Information:          Cell Information
    Surface Area:             1
    Density:                  0
    Weight:                   0
    Polarity:                 0
    PolarityI:                0
    Corrosion Unit Type:      0
    Reference Type:           0
    Reference Potential:      0
    User-Defined Potential:   0
    Stern-Geary:              26
  End Information:            Cell Information
  Begin Pstat:                1287
    Pstat Title:              Instrument #1
    Booster Type:             0
    Booster Name:             None
    Current Range:            0
    Current Limit:            0
    Current LimitType:        0
    Sweep Type:               0
    Use Error Beep:           1
    Auxilary Type:            0
    iR Comp. Type:            0
    iR Ohms:                  0
    iR Time:                  27
    iR Ratio:                 255
    LP Filter Type:           2
    Drift Correction:         1
    Null Correction:          0
    Pstat Bandwidth Type:     2
    Gstat Bandwidth Type:     2
    External Input:           0
    SafetyMinV:               0
    SafetyMaxV:               10
    SafetyMinI:               0
    SafetyMaxI:               4
    SafetyMinQ:               0
    SafetyMaxQ:               1000
    SafetyMinT:               0
    SafetyMaxT:               50
    SafetyChT:                0
    SafetyMinVUse:            0
    SafetyMaxVUse:            0
    SafetyMinIUse:            0
    SafetyMaxIUse:            0
    SafetyMinQUse:            0
    SafetyMaxQUse:            0
    SafetyMinTUse:            0
    SafetyMaxTUse:            0
  End Pstat:                  1287
  Begin Experiment:           Potentiostatic	[-0.22 Ref,3600 Sec][default]	IV_-220mV_1.cor
    Data File:                Z:\191101_Amezawa\fr_XAS\TPB2\100% O2\Electrochem\IV_-220mV_1.cor
    Data Append:              0
    Comment Lines:            0
    Potential:                -0.22
    Potential Type:           1
    Total Time:               3600
    Time Units:               0
    Time Marker:              -1
    Measure Rate Type:        1
    Measure Rate #1:          2000
    Measure Rate #2:          10
    Measure Rate #3:          0.1
    Measure Rate #4:          2
    Use Threshold:            0
    Threshold I_Min:          -15
    Threshold I_Max:          15
    Threshold Delta:          5
    Threshold Time:           60
    Copy AuxV:                0
    Axes Type:                1
    Use Custom Pstat:         0
  End Experiment:             Potentiostatic	[-0.22 Ref,3600 Sec][default]	IV_-220mV_1.cor
  Data Points:                571
  E(Volts)	I(A/cm2)	T(Seconds)
End Comments
-2.258796E-01	-8.037024E-04	0.000000E+00
-2.200912E-01	-7.789963E-04	8.900000E-01
-2.201066E-01	-7.932654E-04	1.340000E+00
-2.201219E-01	-8.028268E-04	1.790000E+00
-2.201219E-01	-8.090935E-04	2.240000E+00
-2.201219E-01	-8.131409E-04	2.680000E+00
-2.201219E-01	-8.158672E-04	3.120000E+00
-2.201142E-01	-8.177180E-04	3.560000E+00
-2.201142E-01	-8.190466E-04	4.000000E+00
-2.201142E-01	-8.200911E-04	4.450000E+00
-2.201142E-01	-8.208514E-04	4.890000E+00
-2.201142E-01	-8.215118E-04	5.340000E+00
-2.201142E-01	-8.221339E-04	5.780000E+00
-2.201142E-01	-8.226869E-04	6.220000E+00
-2.201142E-01	-8.232475E-04	6.670000E+00
-2.201142E-01	-8.238005E-04	7.110000E+00
-2.201219E-01	-8.242535E-04	7.560000E+00
-2.201142E-01	-8.247988E-04	8.020000E+00
-2.201219E-01	-8.253287E-04	8.470000E+00
-2.201219E-01	-8.257512E-04	8.910000E+00
-2.201142E-01	-8.267419E-04	9.790000E+00
-2.201142E-01	-8.272872E-04	1.024000E+01
-2.201219E-01	-8.278401E-04	1.068000E+01
-2.201142E-01	-8.283470E-04	1.113000E+01
-2.201066E-01	-8.288769E-04	1.156000E+01
-2.201142E-01	-8.293992E-04	1.200000E+01
-2.201066E-01	-8.299752E-04	1.245000E+01
-2.201066E-01	-8.304744E-04	1.289000E+01
-2.201066E-01	-8.310043E-04	1.335000E+01
-2.201066E-01	-8.315264E-04	1.379000E+01
-2.201066E-01	-8.321024E-04	1.424000E+01
-2.201142E-01	-8.326400E-04	1.467000E+01
-2.201066E-01	-8.332083E-04	1.512000E+01
-2.201142E-01	-8.337382E-04	1.556000E+01
-2.201142E-01	-8.342374E-04	1.600000E+01
-2.201066E-01	-8.347597E-04	1.645000E+01
-2.201142E-01	-8.353587E-04	1.689000E+01
-2.201142E-01	-8.358962E-04	1.734000E+01
-2.201142E-01	-8.363877E-04	1.777000E+01
-2.201142E-01	-8.368946E-04	1.822000E+01
-2.201219E-01	-8.374016E-04	1.866000E+01
-2.201219E-01	-8.379468E-04	1.911000E+01
-2.201219E-01	-8.389836E-04	1.999000E+01
-2.201219E-01	-8.394981E-04	2.044000E+01
-2.201219E-01	-8.399896E-04	2.087000E+01
-2.201219E-01	-8.404966E-04	2.132000E+01
-2.201142E-01	-8.409881E-04	2.176000E+01
-2.201142E-01	-8.415026E-04	2.221000E+01
-2.201142E-01	-8.419173E-04	2.265000E+01
-2.201219E-01	-8.424242E-04	2.309000E+01
-2.201219E-01	-8.429310E-04	2.353000E+01
-2.201219E-01	-8.434533E-04	2.397000E+01
-2.201219E-01	-8.439217E-04	2.442000E+01
-2.201219E-01	-8.444363E-04	2.485000E+01
-2.201219E-01	-8.449124E-04	2.530000E+01
-2.201219E-01	-8.453348E-04	2.574000E+01
-2.201219E-01	-8.458187E-04	2.619000E+01
-2.201219E-01	-8.462564E-04	2.663000E+01
-2.201219E-01	-8.467248E-04	2.708000E+01
-2.201219E-01	-8.471856E-04	2.752000E+01
-2.201296E-01	-8.477155E-04	2.795000E+01
-2.201219E-01	-8.481764E-04	2.840000E+01
-2.201219E-01	-8.485910E-04	2.885000E+01
-2.201219E-01	-8.495279E-04	2.974000E+01
-2.201219E-01	-8.499349E-04	3.019000E+01
-2.201219E-01	-8.504111E-04	3.062000E+01
-2.201219E-01	-8.508258E-04	3.107000E+01
-2.201219E-01	-8.512789E-04	3.151000E+01
-2.201219E-01	-8.516476E-04	3.195000E+01
-2.201219E-01	-8.520930E-04	3.240000E+01
-2.201296E-01	-8.525461E-04	3.284000E+01
-2.201219E-01	-8.529915E-04	3.329000E+01
-2.201219E-01	-8.534139E-04	3.372000E+01
-2.201219E-01	-8.537748E-04	3.417000E+01
-2.201219E-01	-8.542357E-04	3.461000E+01
-2.201219E-01	-8.546427E-04	3.506000E+01
-2.201219E-01	-8.550267E-04	3.550000E+01
-2.201219E-01	-8.554952E-04	3.594000E+01
-2.201219E-01	-8.558945E-04	3.639000E+01
-2.201219E-01	-8.562784E-04	3.683000E+01
-2.201219E-01	-8.567086E-04	3.727000E+01
-2.201219E-01	-8.570694E-04	3.771000E+01
-2.201219E-01	-8.574919E-04	3.816000E+01
-2.201219E-01	-8.578835E-04	3.860000E+01
-2.201142E-01	-8.582983E-04	3.905000E+01
-2.201142E-01	-8.591200E-04	3.993000E+01
-2.201066E-01	-8.595040E-04	4.037000E+01
-2.201142E-01	-8.599341E-04	4.081000E+01
-2.201142E-01	-8.603258E-04	4.126000E+01
-2.201142E-01	-8.606713E-04	4.170000E+01
-2.201142E-01	-8.610477E-04	4.215000E+01
-2.201142E-01	-8.614394E-04	4.259000E+01
-2.201142E-01	-8.618156E-04	4.304000E+01
-2.201142E-01	-8.622457E-04	4.348000E+01
-2.201142E-01	-8.625683E-04	4.391000E+01
-2.201142E-01	-8.629061E-04	4.437000E+01
-2.201142E-01	-8.632517E-04	4.481000E+01
-2.201142E-01	-8.636512E-04	4.526000E+01
-2.201142E-01	-8.639967E-04	4.570000E+01
-2.201142E-01	-8.643346E-04	4.615000E+01
-2.201066E-01	-8.646648E-04	4.659000E+01
-2.201142E-01	-8.649721E-04	4.704000E+01
-2.201142E-01	-8.653100E-04	4.748000E+01
-2.201066E-01	-8.656709E-04	4.791000E+01
-2.201142E-01	-8.659474E-04	4.836000E+01
-2.201142E-01	-8.660242E-04	4.880000E+01
-2.201142E-01	-8.663237E-04	4.925000E+01
-2.201142E-01	-8.669458E-04	5.014000E+01
-2.201142E-01	-8.672607E-04	5.058000E+01
-2.201066E-01	-8.675908E-04	5.103000E+01
-2.201142E-01	-8.679595E-04	5.146000E+01
-2.201142E-01	-8.682053E-04	5.190000E+01
-2.201142E-01	-8.685355E-04	5.235000E+01
-2.201142E-01	-8.687967E-04	5.279000E+01
-2.201142E-01	-8.690962E-04	5.324000E+01
-2.201142E-01	-8.694264E-04	5.368000E+01
-2.201142E-01	-8.697105E-04	5.413000E+01
-2.201142E-01	-8.700408E-04	5.456000E+01
-2.201142E-01	-8.703710E-04	5.500000E+01
-2.201066E-01	-8.707012E-04	5.545000E+01
-2.201142E-01	-8.709623E-04	5.590000E+01
-2.201142E-01	-8.712849E-04	5.635000E+01
-2.201142E-01	-8.716075E-04	5.678000E+01
-2.201142E-01	-8.718532E-04	5.723000E+01
-2.201142E-01	-8.721835E-04	5.767000E+01
-2.201142E-01	-8.724137E-04	5.812000E+01
-2.201142E-01	-8.727133E-04	5.856000E+01
-2.201066E-01	-8.729130E-04	5.900000E+01
-2.201142E-01	-8.734891E-04	5.988000E+01
-2.201142E-01	-8.737347E-04	6.033000E+01
-2.201219E-01	-8.739497E-04	6.077000E+01
-2.201142E-01	-8.742033E-04	6.122000E+01
-2.201142E-01	-8.744567E-04	6.166000E+01
-2.201142E-01	-8.747024E-04	6.211000E+01
-2.201142E-01	-8.749788E-04	6.255000E+01
-2.201142E-01	-8.752169E-04	6.299000E+01
-2.201219E-01	-8.755088E-04	6.344000E+01
-2.201219E-01	-8.756394E-04	6.388000E+01
-2.201066E-01	-8.759389E-04	6.433000E+01
-2.201142E-01	-8.761539E-04	6.476000E+01
-2.201142E-01	-8.764150E-04	6.521000E+01
-2.201219E-01	-8.766301E-04	6.565000E+01
-2.201142E-01	-8.768297E-04	6.610000E+01
-2.201142E-01	-8.770908E-04	6.654000E+01
-2.201142E-01	-8.772982E-04	6.698000E+01
-2.201219E-01	-8.774825E-04	6.743000E+01
-2.201142E-01	-8.776745E-04	6.787000E+01
-2.201142E-01	-8.779279E-04	6.832000E+01
-2.201142E-01	-8.781737E-04	6.876000E+01
-2.201219E-01	-8.785962E-04	6.921000E+01
-2.201219E-01	-8.790416E-04	7.010000E+01
-2.201219E-01	-8.792566E-04	7.053000E+01
-2.201219E-01	-8.794640E-04	7.097000E+01
-2.201219E-01	-8.796637E-04	7.142000E+01
-2.201219E-01	-8.799094E-04	7.186000E+01
-2.201219E-01	-8.801475E-04	7.231000E+01
-2.201219E-01	-8.803318E-04	7.275000E+01
-2.201219E-01	-8.805545E-04	7.320000E+01
-2.201219E-01	-8.807312E-04	7.364000E+01
-2.201219E-01	-8.809308E-04	7.410000E+01
-2.201219E-01	-8.811305E-04	7.453000E+01
-2.201219E-01	-8.813533E-04	7.497000E+01
-2.201219E-01	-8.815299E-04	7.543000E+01
-2.201219E-01	-8.817449E-04	7.586000E+01
-2.201219E-01	-8.819369E-04	7.631000E+01
-2.201219E-01	-8.821135E-04	7.675000E+01
-2.201219E-01	-8.822902E-04	7.720000E+01
-2.201219E-01	-8.824745E-04	7.764000E+01
-2.201219E-01	-8.826588E-04	7.809000E+01
-2.201219E-01	-8.828585E-04	7.853000E+01
-2.201142E-01	-8.829890E-04	7.896000E+01
-2.201142E-01	-8.833500E-04	7.985000E+01
-2.201142E-01	-8.835343E-04	8.030000E+01
-2.201219E-01	-8.837493E-04	8.073000E+01
-2.201219E-01	-8.839259E-04	8.118000E+01
-2.201219E-01	-8.840872E-04	8.162000E+01
-2.201219E-01	-8.842793E-04	8.207000E+01
-2.201219E-01	-8.845020E-04	8.251000E+01
-2.201219E-01	-8.846401E-04	8.295000E+01
-2.201219E-01	-8.848552E-04	8.340000E+01
-2.201142E-01	-8.850626E-04	8.384000E+01
-2.201219E-01	-8.852008E-04	8.428000E+01
-2.201219E-01	-8.854466E-04	8.472000E+01
-2.201219E-01	-8.856463E-04	8.517000E+01
-2.201219E-01	-8.858152E-04	8.561000E+01
-2.201219E-01	-8.859842E-04	8.606000E+01
-2.201219E-01	-8.860840E-04	8.650000E+01
-2.201219E-01	-8.862530E-04	8.694000E+01
-2.201219E-01	-8.864373E-04	8.738000E+01
-2.201219E-01	-8.866139E-04	8.783000E+01
-2.201219E-01	-8.867598E-04	8.830000E+01
-2.201219E-01	-8.869058E-04	8.874000E+01
-2.201219E-01	-8.870516E-04	8.918000E+01
-2.201219E-01	-8.873358E-04	9.008000E+01
-2.201219E-01	-8.875124E-04	9.051000E+01
-2.201219E-01	-8.875892E-04	9.095000E+01
-2.201219E-01	-8.877275E-04	9.140000E+01
-2.201219E-01	-8.878350E-04	9.184000E+01
-2.201219E-01	-8.879655E-04	9.228000E+01
-2.201219E-01	-8.880654E-04	9.272000E+01
-2.201296E-01	-8.882114E-04	9.317000E+01
-2.201219E-01	-8.884264E-04	9.361000E+01
-2.201219E-01	-8.885646E-04	9.406000E+01
-2.201219E-01	-8.886414E-04	9.450000E+01
-2.201219E-01	-8.888257E-04	9.494000E+01
-2.201219E-01	-8.889256E-04	9.539000E+01
-2.201219E-01	-8.890638E-04	9.583000E+01
-2.201142E-01	-8.892327E-04	9.627000E+01
-2.201219E-01	-8.894707E-04	9.671000E+01
-2.201142E-01	-8.896321E-04	9.716000E+01
-2.201219E-01	-8.897012E-04	9.760000E+01
-2.201219E-01	-8.898087E-04	9.805000E+01
-2.201219E-01	-8.899163E-04	9.849000E+01
-2.201219E-01	-8.900544E-04	9.893000E+01
-2.201219E-01	-8.903540E-04	9.982000E+01
-2.201219E-01	-8.904308E-04	1.002700E+02
-2.201219E-01	-8.904846E-04	1.007100E+02
-2.201219E-01	-8.905767E-04	1.011600E+02
-2.201142E-01	-8.907840E-04	1.016000E+02
-2.201219E-01	-8.909146E-04	1.020500E+02
-2.201219E-01	-8.909761E-04	1.024900E+02
-2.201219E-01	-8.910989E-04	1.029200E+02
-2.201219E-01	-8.912602E-04	1.033700E+02
-2.201219E-01	-8.913447E-04	1.038100E+02
-2.201142E-01	-8.915213E-04	1.042700E+02
-2.201219E-01	-8.916365E-04	1.047100E+02
-2.201219E-01	-8.917287E-04	1.051600E+02
-2.201296E-01	-8.918823E-04	1.056000E+02
-2.201296E-01	-8.920128E-04	1.060500E+02
-2.201219E-01	-8.921741E-04	1.064900E+02
-2.201219E-01	-8.922970E-04	1.069200E+02
-2.201219E-01	-8.924198E-04	1.073700E+02
-2.201296E-01	-8.924122E-04	1.078100E+02
-2.201296E-01	-8.925658E-04	1.082600E+02
-2.201219E-01	-8.925965E-04	1.087000E+02
-2.201142E-01	-8.925273E-04	1.091500E+02
-2.201142E-01	-8.927577E-04	1.100500E+02
-2.201142E-01	-8.928346E-04	1.104800E+02
-2.201219E-01	-8.930112E-04	1.109200E+02
-2.201142E-01	-8.930880E-04	1.113700E+02
-2.201142E-01	-8.931724E-04	1.118100E+02
-2.201142E-01	-8.933183E-04	1.122600E+02
-2.201142E-01	-8.933567E-04	1.127000E+02
-2.201219E-01	-8.934950E-04	1.131500E+02
-2.201142E-01	-8.936563E-04	1.135900E+02
-2.201142E-01	-8.937254E-04	1.140400E+02
-2.201142E-01	-8.938559E-04	1.144700E+02
-2.201142E-01	-8.940402E-04	1.149100E+02
-2.201142E-01	-8.941247E-04	1.153600E+02
-2.201142E-01	-8.941094E-04	1.158100E+02
-2.201142E-01	-8.941938E-04	1.162600E+02
-2.201142E-01	-8.943244E-04	1.166900E+02
-2.201142E-01	-8.943551E-04	1.171400E+02
-2.201142E-01	-8.944626E-04	1.175800E+02
-2.201219E-01	-8.945778E-04	1.180300E+02
-2.201142E-01	-8.947544E-04	1.184700E+02
-2.201142E-01	-8.949004E-04	1.189100E+02
-2.201142E-01	-8.949158E-04	1.197900E+02
-2.201142E-01	-8.951615E-04	1.202400E+02
-2.201142E-01	-8.951692E-04	1.206800E+02
-2.201142E-01	-8.952307E-04	1.211300E+02
-2.201142E-01	-8.954303E-04	1.215700E+02
-2.201219E-01	-8.955225E-04	1.220200E+02
-2.201142E-01	-8.954995E-04	1.224600E+02
-2.201142E-01	-8.956838E-04	1.229000E+02
-2.201219E-01	-8.957529E-04	1.233500E+02
-2.201142E-01	-8.958682E-04	1.237900E+02
-2.201219E-01	-8.958759E-04	1.242300E+02
-2.201219E-01	-8.960064E-04	1.246700E+02
-2.201219E-01	-8.960909E-04	1.251200E+02
-2.201142E-01	-8.960371E-04	1.255600E+02
-2.201142E-01	-8.960832E-04	1.260000E+02
-2.201142E-01	-8.961293E-04	1.264500E+02
-2.201219E-01	-8.962752E-04	1.268900E+02
-2.201142E-01	-8.962521E-04	1.273300E+02
-2.201142E-01	-8.962521E-04	1.277700E+02
-2.201219E-01	-8.964825E-04	1.282200E+02
-2.201142E-01	-8.964825E-04	1.286600E+02
-2.201219E-01	-8.964518E-04	1.291200E+02
-2.201142E-01	-8.966591E-04	1.299900E+02
-2.201142E-01	-8.965747E-04	1.304400E+02
-2.201142E-01	-8.967667E-04	1.308800E+02
-2.201219E-01	-8.967974E-04	1.313300E+02
-2.201142E-01	-8.967590E-04	1.317700E+02
-2.201142E-01	-8.968204E-04	1.322200E+02
-2.201219E-01	-8.968204E-04	1.326600E+02
-2.201142E-01	-8.969971E-04	1.331100E+02
-2.201142E-01	-8.971967E-04	1.335500E+02
-2.201142E-01	-8.972351E-04	1.339900E+02
-2.201142E-01	-8.974040E-04	1.344300E+02
-2.201219E-01	-8.975116E-04	1.348700E+02
-2.201142E-01	-8.975807E-04	1.353200E+02
-2.201142E-01	-8.976191E-04	1.357600E+02
-2.201142E-01	-8.977113E-04	1.362100E+02
-2.201219E-01	-8.979263E-04	1.366500E+02
-2.201142E-01	-8.979571E-04	1.371000E+02
-2.201142E-01	-8.979493E-04	1.375400E+02
-2.201142E-01	-8.980031E-04	1.379700E+02
-2.201142E-01	-8.980262E-04	1.384200E+02
-2.201219E-01	-8.979186E-04	1.388700E+02
-2.201142E-01	-8.979340E-04	1.397500E+02
-2.201142E-01	-8.980260E-04	1.402000E+02
-2.201219E-01	-8.981874E-04	1.406400E+02
-2.201142E-01	-8.981413E-04	1.410800E+02
-2.201142E-01	-8.982257E-04	1.415200E+02
-2.201066E-01	-8.983026E-04	1.419600E+02
-2.201142E-01	-8.983871E-04	1.424100E+02
-2.201219E-01	-8.983794E-04	1.428500E+02
-2.201142E-01	-8.985022E-04	1.433000E+02
-2.201142E-01	-8.986021E-04	1.437400E+02
-2.201142E-01	-8.986098E-04	1.441800E+02
-2.201142E-01	-8.987172E-04	1.446200E+02
-2.201142E-01	-8.988171E-04	1.450700E+02
-2.201142E-01	-8.989631E-04	1.455100E+02
-2.201219E-01	-8.989631E-04	1.459500E+02
-2.201142E-01	-8.990628E-04	1.463900E+02
-2.201142E-01	-8.990245E-04	1.468300E+02
-2.201142E-01	-8.990322E-04	1.472900E+02
-2.201142E-01	-8.989937E-04	1.477200E+02
-2.201142E-01	-8.990628E-04	1.481700E+02
-2.201142E-01	-8.992088E-04	1.486100E+02
-2.201142E-01	-8.992779E-04	1.490600E+02
-2.201219E-01	-8.993087E-04	1.499300E+02
-2.201142E-01	-8.993317E-04	1.503800E+02
-2.201219E-01	-8.992472E-04	1.508200E+02
-2.201219E-01	-8.993087E-04	1.512700E+02
-2.201142E-01	-8.993701E-04	1.517100E+02
-2.201142E-01	-8.994008E-04	1.521600E+02
-2.201219E-01	-8.995237E-04	1.526000E+02
-2.201142E-01	-8.995313E-04	1.530500E+02
-2.201219E-01	-8.996465E-04	1.534800E+02
-2.201219E-01	-8.995697E-04	1.539200E+02
-2.201142E-01	-8.995928E-04	1.543700E+02
-2.201219E-01	-8.995621E-04	1.548100E+02
-2.201219E-01	-8.995928E-04	1.552600E+02
-2.201219E-01	-8.996773E-04	1.557000E+02
-2.201219E-01	-8.997003E-04	1.561400E+02
-2.201142E-01	-8.996696E-04	1.565800E+02
-2.201142E-01	-8.996773E-04	1.570300E+02
-2.201219E-01	-8.997848E-04	1.574700E+02
-2.201142E-01	-8.997080E-04	1.579100E+02
-2.201142E-01	-8.997156E-04	1.583600E+02
-2.201219E-01	-8.998232E-04	1.588000E+02
-2.201219E-01	-8.997387E-04	1.592500E+02
-2.201219E-01	-8.998616E-04	1.601300E+02
-2.201219E-01	-9.000382E-04	1.605700E+02
-2.201296E-01	-9.000459E-04	1.610200E+02
-2.201296E-01	-8.999307E-04	1.614700E+02
-2.201219E-01	-9.001227E-04	1.619100E+02
-2.201219E-01	-9.001381E-04	1.623600E+02
-2.201296E-01	-9.002302E-04	1.628000E+02
-2.201296E-01	-9.002993E-04	1.632400E+02
-2.201296E-01	-9.002686E-04	1.636800E+02
-2.201296E-01	-9.002532E-04	1.641300E+02
-2.201219E-01	-9.001687E-04	1.645700E+02
-2.201219E-01	-9.002148E-04	1.650200E+02
-2.201219E-01	-9.003300E-04	1.654600E+02
-2.201296E-01	-9.004068E-04	1.659000E+02
-2.201296E-01	-9.004298E-04	1.663400E+02
-2.201296E-01	-9.004759E-04	1.667800E+02
-2.201296E-01	-9.004529E-04	1.672300E+02
-2.201219E-01	-9.003454E-04	1.676700E+02
-2.201219E-01	-9.004913E-04	1.681500E+02
-2.201219E-01	-9.004683E-04	1.685900E+02
-2.201219E-01	-9.004375E-04	1.690400E+02
-2.201219E-01	-9.006756E-04	1.699200E+02
-2.201219E-01	-9.006526E-04	1.703700E+02
-2.201219E-01	-9.006756E-04	1.708100E+02
-2.201296E-01	-9.006372E-04	1.712600E+02
-2.201219E-01	-9.005604E-04	1.716900E+02
-2.201219E-01	-9.006679E-04	1.721400E+02
-2.201219E-01	-9.006218E-04	1.725700E+02
-2.201219E-01	-9.006987E-04	1.730200E+02
-2.201219E-01	-9.006065E-04	1.734600E+02
-2.201296E-01	-9.005758E-04	1.739100E+02
-2.201296E-01	-9.005911E-04	1.743600E+02
-2.201219E-01	-9.005681E-04	1.747900E+02
-2.201296E-01	-9.006756E-04	1.752400E+02
-2.201296E-01	-9.007140E-04	1.756800E+02
-2.201296E-01	-9.007294E-04	1.761300E+02
-2.201296E-01	-9.006218E-04	1.765700E+02
-2.201219E-01	-9.006526E-04	1.770200E+02
-2.201219E-01	-9.007985E-04	1.774600E+02
-2.201296E-01	-9.007294E-04	1.778900E+02
-2.201219E-01	-9.007601E-04	1.783400E+02
-2.201219E-01	-9.007294E-04	1.787800E+02
-2.201219E-01	-9.008907E-04	1.792300E+02
-2.201219E-01	-9.006987E-04	1.801100E+02
-2.201219E-01	-9.006756E-04	1.805500E+02
-2.201219E-01	-9.006142E-04	1.809900E+02
-2.201219E-01	-9.006833E-04	1.814300E+02
-2.201219E-01	-9.006680E-04	1.818700E+02
-2.201219E-01	-9.006219E-04	1.823200E+02
-2.201219E-01	-9.007448E-04	1.827600E+02
-2.201219E-01	-9.007524E-04	1.832100E+02
-2.201219E-01	-9.006450E-04	1.836600E+02
-2.201219E-01	-9.006296E-04	1.841100E+02
-2.201219E-01	-9.006756E-04	1.845400E+02
-2.201219E-01	-9.007448E-04	1.849800E+02
-2.201219E-01	-9.007448E-04	1.854300E+02
-2.201219E-01	-9.007524E-04	1.858700E+02
-2.201219E-01	-9.007601E-04	1.863200E+02
-2.201219E-01	-9.006296E-04	1.867600E+02
-2.201219E-01	-9.006142E-04	1.872100E+02
-2.201142E-01	-9.006527E-04	1.876500E+02
-2.201142E-01	-9.006833E-04	1.880900E+02
-2.201296E-01	-9.007985E-04	1.885300E+02
-2.201219E-01	-9.008523E-04	1.889700E+02
-2.201142E-01	-9.008677E-04	1.898600E+02
-2.201219E-01	-9.008984E-04	1.903100E+02
-2.201219E-01	-9.008523E-04	1.907500E+02
-2.201219E-01	-9.009829E-04	1.911900E+02
-2.201219E-01	-9.008370E-04	1.916300E+02
-2.201219E-01	-9.008446E-04	1.920800E+02
-2.201219E-01	-9.008523E-04	1.925200E+02
-2.201296E-01	-9.009983E-04	1.929600E+02
-2.201296E-01	-9.009061E-04	1.934100E+02
-2.201296E-01	-9.008446E-04	1.938500E+02
-2.201296E-01	-9.009829E-04	1.943000E+02
-2.201296E-01	-9.008754E-04	1.947300E+02
-2.201219E-01	-9.009138E-04	1.951800E+02
-2.201219E-01	-9.009138E-04	1.956200E+02
-2.201296E-01	-9.009368E-04	1.960700E+02
-2.201296E-01	-9.009829E-04	1.965100E+02
-2.201296E-01	-9.009753E-04	1.969500E+02
-2.201219E-01	-9.009983E-04	1.974000E+02
-2.201296E-01	-9.009368E-04	1.978300E+02
-2.201219E-01	-9.008600E-04	1.982900E+02
-2.201219E-01	-9.008139E-04	1.987300E+02
-2.201219E-01	-9.009215E-04	1.991800E+02
-2.201219E-01	-9.007294E-04	2.000700E+02
-2.201219E-01	-9.007755E-04	2.005100E+02
-2.201142E-01	-9.007909E-04	2.009500E+02
-2.201142E-01	-9.007524E-04	2.014000E+02
-2.201142E-01	-9.007601E-04	2.018300E+02
-2.201142E-01	-9.007755E-04	2.022800E+02
-2.201142E-01	-9.006757E-04	2.027200E+02
-2.201219E-01	-9.006757E-04	2.031700E+02
-2.201219E-01	-9.006680E-04	2.036100E+02
-2.201219E-01	-9.007063E-04	2.040700E+02
-2.201142E-01	-9.007449E-04	2.045000E+02
-2.201142E-01	-9.007218E-04	2.049400E+02
-2.201219E-01	-9.007218E-04	2.053900E+02
-2.201142E-01	-9.006757E-04	2.058300E+02
-2.201142E-01	-9.006834E-04	2.062800E+02
-2.201219E-01	-9.007218E-04	2.067200E+02
-2.201142E-01	-9.006911E-04	2.071700E+02
-2.201142E-01	-9.006988E-04	2.076000E+02
-2.201219E-01	-9.006527E-04	2.080500E+02
-2.201219E-01	-9.006911E-04	2.084900E+02
-2.201142E-01	-9.004529E-04	2.089300E+02
-2.201142E-01	-9.002916E-04	2.098200E+02
-2.201219E-01	-9.003377E-04	2.102700E+02
-2.201142E-01	-9.003761E-04	2.107000E+02
-2.201219E-01	-9.003224E-04	2.111500E+02
-2.201219E-01	-9.003684E-04	2.115900E+02
-2.201142E-01	-9.003914E-04	2.120400E+02
-2.201142E-01	-9.004298E-04	2.124800E+02
-2.201142E-01	-9.003761E-04	2.129200E+02
-2.201142E-01	-9.003531E-04	2.133700E+02
-2.201142E-01	-9.003837E-04	2.138100E+02
-2.201142E-01	-9.003608E-04	2.142600E+02
-2.201142E-01	-9.002993E-04	2.147000E+02
-2.201142E-01	-9.003147E-04	2.151500E+02
-2.201142E-01	-9.003070E-04	2.155800E+02
-2.201219E-01	-9.002609E-04	2.160300E+02
-2.201142E-01	-9.001073E-04	2.164700E+02
-2.201142E-01	-9.002302E-04	2.169100E+02
-2.201142E-01	-9.002379E-04	2.173600E+02
-2.201219E-01	-9.002148E-04	2.178000E+02
-2.201142E-01	-9.001918E-04	2.182500E+02
-2.201219E-01	-9.000920E-04	2.186900E+02
-2.201219E-01	-9.002456E-04	2.191400E+02
-2.201219E-01	-9.001918E-04	2.200300E+02
-2.201219E-01	-9.001842E-04	2.204700E+02
-2.201219E-01	-9.000920E-04	2.209000E+02
-2.201219E-01	-9.000382E-04	2.213500E+02
-2.201219E-01	-8.999922E-04	2.217900E+02
-2.201219E-01	-8.999844E-04	2.222400E+02
-2.201219E-01	-8.999308E-04	2.226800E+02
-2.201219E-01	-8.998770E-04	2.231200E+02
-2.201142E-01	-8.999231E-04	2.235700E+02
-2.201142E-01	-8.999077E-04	2.240000E+02
-2.201219E-01	-8.998616E-04	2.244500E+02
-2.201142E-01	-8.997311E-04	2.248900E+02
-2.201142E-01	-8.997771E-04	2.253400E+02
-2.201219E-01	-8.998002E-04	2.257800E+02
-2.201219E-01	-8.997233E-04	2.262300E+02
-2.201142E-01	-8.998002E-04	2.266700E+02
-2.201219E-01	-8.997617E-04	2.271200E+02
-2.201219E-01	-8.997387E-04	2.275500E+02
-2.201142E-01	-8.996850E-04	2.279900E+02
-2.201219E-01	-8.996236E-04	2.284400E+02
-2.201142E-01	-8.994162E-04	2.288800E+02
-2.201142E-01	-8.993624E-04	2.297700E+02
-2.201142E-01	-8.993240E-04	2.302200E+02
-2.201142E-01	-8.993547E-04	2.306500E+02
-2.201219E-01	-8.992548E-04	2.311000E+02
-2.201219E-01	-8.992548E-04	2.315400E+02
-2.201219E-01	-8.991089E-04	2.319800E+02
-2.201219E-01	-8.991013E-04	2.324300E+02
-2.201219E-01	-8.990705E-04	2.328700E+02
-2.201219E-01	-8.991243E-04	2.333200E+02
-2.201219E-01	-8.990628E-04	2.337600E+02
-2.201219E-01	-8.990014E-04	2.342000E+02
-2.201219E-01	-8.989706E-04	2.346400E+02
-2.201219E-01	-8.989554E-04	2.350900E+02
-2.201219E-01	-8.988786E-04	2.355300E+02
-2.201219E-01	-8.988171E-04	2.359700E+02
-2.201219E-01	-8.988401E-04	2.364200E+02
-2.201219E-01	-8.989093E-04	2.368600E+02
-2.201219E-01	-8.988478E-04	2.373000E+02
-2.201219E-01	-8.988709E-04	2.377400E+02
-2.201219E-01	-8.989016E-04	2.382000E+02
-2.201219E-01	-8.988709E-04	2.386300E+02
-2.201142E-01	-8.989093E-04	2.390800E+02
-2.201066E-01	-8.989170E-04	2.399600E+02
-2.201142E-01	-8.989400E-04	2.404100E+02
-2.201142E-01	-8.988632E-04	2.408500E+02
-2.201142E-01	-8.988632E-04	2.413000E+02
-2.201142E-01	-8.987787E-04	2.417300E+02
-2.201066E-01	-8.988018E-04	2.421800E+02
-2.201142E-01	-8.987250E-04	2.426200E+02
-2.201142E-01	-8.987787E-04	2.430800E+02
-2.201142E-01	-8.987941E-04	2.435200E+02
-2.201142E-01	-8.987557E-04	2.439500E+02
-2.201142E-01	-8.987557E-04	2.444000E+02
-2.201142E-01	-8.987174E-04	2.448400E+02
-2.201142E-01	-8.987404E-04	2.452900E+02
-2.201142E-01	-8.987174E-04	2.457300E+02
-2.201066E-01	-8.986943E-04	2.461800E+02
-2.201066E-01	-8.986559E-04	2.466200E+02
-2.201142E-01	-8.985560E-04	2.470700E+02
-2.201066E-01	-8.985714E-04	2.475000E+02
-2.201066E-01	-8.985868E-04	2.479700E+02
-2.201142E-01	-8.985791E-04	2.484200E+02
-2.201219E-01	-8.983717E-04	2.488500E+02
-2.201142E-01	-8.983179E-04	2.497400E+02
-2.201142E-01	-8.982872E-04	2.501900E+02
-2.201219E-01	-8.982180E-04	2.506300E+02
-2.201142E-01	-8.982028E-04	2.510800E+02
-2.201142E-01	-8.982180E-04	2.515200E+02
-2.201219E-01	-8.981874E-04	2.519600E+02
-2.201219E-01	-8.981874E-04	2.524000E+02
-2.201142E-01	-8.981029E-04	2.528400E+02
-2.201219E-01	-8.980338E-04	2.532900E+02
-2.201142E-01	-8.979493E-04	2.537300E+02
-2.201142E-01	-8.979032E-04	2.541800E+02
-2.201219E-01	-8.979186E-04	2.546200E+02
-2.201219E-01	-8.978494E-04	2.550700E+02
-2.201142E-01	-8.977880E-04	2.555100E+02
-2.201142E-01	-8.977880E-04	2.559400E+02
-2.201142E-01	-8.977957E-04	2.563900E+02
-2.201142E-01	-8.977343E-04	2.568300E+02
-2.201219E-01	-8.977189E-04	2.572800E+02
-2.201142E-01	-8.977880E-04	2.577200E+02
-2.201142E-01	-8.977804E-04	2.581700E+02
-2.201142E-01	-8.977265E-04	2.586100E+02
-2.201219E-01	-8.979033E-04	2.590600E+02
-2.201142E-01	-8.976652E-04	2.599300E+02
-2.201219E-01	-8.976498E-04	2.603900E+02
-2.201142E-01	-8.977036E-04	2.608300E+02
-2.201219E-01	-8.976652E-04	2.612800E+02
-2.201219E-01	-8.975883E-04	2.617100E+02
-2.201142E-01	-8.975731E-04	2.621600E+02
-2.201142E-01	-8.974962E-04	2.626000E+02
-2.201142E-01	-8.974809E-04	2.630500E+02
-2.201142E-01	-8.973196E-04	2.634900E+02
-2.201142E-01	-8.974118E-04	2.639300E+02
-2.201142E-01	-8.974655E-04	2.643800E+02
-2.201142E-01	-8.973503E-04	2.648200E+02
