CORRW ASCII
  CorrWare for Windows: Version 3.5f
  Potentiostatic	[-0.22 Ref,3600 Sec][default]	IV_-220mV_5.cor
  Date: 11-05-2019    Time: 02:42:04
   
   
  Open Circuit Potential (V): 0.0021
  Begin Information:          Cell Information
    Surface Area:             1
    Density:                  0
    Weight:                   0
    Polarity:                 0
    PolarityI:                0
    Corrosion Unit Type:      0
    Reference Type:           0
    Reference Potential:      0
    User-Defined Potential:   0
    Stern-Geary:              26
  End Information:            Cell Information
  Begin Pstat:                1287
    Pstat Title:              Instrument #1
    Booster Type:             0
    Booster Name:             None
    Current Range:            0
    Current Limit:            0
    Current LimitType:        0
    Sweep Type:               0
    Use Error Beep:           1
    Auxilary Type:            0
    iR Comp. Type:            0
    iR Ohms:                  0
    iR Time:                  27
    iR Ratio:                 255
    LP Filter Type:           2
    Drift Correction:         1
    Null Correction:          0
    Pstat Bandwidth Type:     2
    Gstat Bandwidth Type:     2
    External Input:           0
    SafetyMinV:               0
    SafetyMaxV:               10
    SafetyMinI:               0
    SafetyMaxI:               4
    SafetyMinQ:               0
    SafetyMaxQ:               1000
    SafetyMinT:               0
    SafetyMaxT:               50
    SafetyChT:                0
    SafetyMinVUse:            0
    SafetyMaxVUse:            0
    SafetyMinIUse:            0
    SafetyMaxIUse:            0
    SafetyMinQUse:            0
    SafetyMaxQUse:            0
    SafetyMinTUse:            0
    SafetyMaxTUse:            0
  End Pstat:                  1287
  Begin Experiment:           Potentiostatic	[-0.22 Ref,3600 Sec][default]	IV_-220mV_5.cor
    Data File:                Z:\191101_Amezawa\fr_XAS\TPB2\100% O2\Electrochem\IV_-220mV_5.cor
    Data Append:              0
    Comment Lines:            0
    Potential:                -0.22
    Potential Type:           1
    Total Time:               3600
    Time Units:               0
    Time Marker:              -1
    Measure Rate Type:        1
    Measure Rate #1:          2000
    Measure Rate #2:          10
    Measure Rate #3:          0.1
    Measure Rate #4:          2
    Use Threshold:            0
    Threshold I_Min:          -15
    Threshold I_Max:          15
    Threshold Delta:          5
    Threshold Time:           60
    Copy AuxV:                0
    Axes Type:                1
    Use Custom Pstat:         0
  End Experiment:             Potentiostatic	[-0.22 Ref,3600 Sec][default]	IV_-220mV_5.cor
  Data Points:                1293
  E(Volts)	I(A/cm2)	T(Seconds)
End Comments
-2.327196E-01	-7.123124E-04	0.000000E+00
-2.201066E-01	-6.556275E-04	8.900000E-01
-2.201066E-01	-6.728073E-04	1.340000E+00
-2.201066E-01	-6.840352E-04	1.790000E+00
-2.201142E-01	-6.912773E-04	2.240000E+00
-2.201142E-01	-6.958699E-04	2.680000E+00
-2.201142E-01	-6.988649E-04	3.130000E+00
-2.201066E-01	-7.008387E-04	3.570000E+00
-2.200989E-01	-7.019599E-04	4.010000E+00
-2.200989E-01	-7.029813E-04	4.460000E+00
-2.200989E-01	-7.035958E-04	4.900000E+00
-2.200912E-01	-7.041103E-04	5.340000E+00
-2.201066E-01	-7.046171E-04	5.780000E+00
-2.201219E-01	-7.050011E-04	6.230000E+00
-2.201142E-01	-7.054312E-04	6.670000E+00
-2.201066E-01	-7.057921E-04	7.120000E+00
-2.200989E-01	-7.060533E-04	7.560000E+00
-2.200989E-01	-7.063451E-04	8.000000E+00
-2.200989E-01	-7.066983E-04	8.440000E+00
-2.201066E-01	-7.069825E-04	8.890000E+00
-2.200989E-01	-7.073511E-04	9.340000E+00
-2.201219E-01	-7.081422E-04	1.023000E+01
-2.200989E-01	-7.083418E-04	1.067000E+01
-2.200912E-01	-7.086798E-04	1.112000E+01
-2.200989E-01	-7.090485E-04	1.155000E+01
-2.200912E-01	-7.094248E-04	1.199000E+01
-2.200989E-01	-7.097166E-04	1.244000E+01
-2.200912E-01	-7.100852E-04	1.288000E+01
-2.200989E-01	-7.104462E-04	1.333000E+01
-2.200989E-01	-7.107610E-04	1.377000E+01
-2.201142E-01	-7.110912E-04	1.422000E+01
-2.201142E-01	-7.114522E-04	1.466000E+01
-2.200989E-01	-7.116365E-04	1.510000E+01
-2.200989E-01	-7.119667E-04	1.554000E+01
-2.200912E-01	-7.123047E-04	1.598000E+01
-2.200912E-01	-7.126349E-04	1.643000E+01
-2.200912E-01	-7.128960E-04	1.687000E+01
-2.200912E-01	-7.132108E-04	1.732000E+01
-2.200912E-01	-7.135872E-04	1.776000E+01
-2.200989E-01	-7.138790E-04	1.820000E+01
-2.201066E-01	-7.143629E-04	1.865000E+01
-2.201219E-01	-7.146471E-04	1.908000E+01
-2.200989E-01	-7.152460E-04	1.997000E+01
-2.201066E-01	-7.155917E-04	2.042000E+01
-2.200989E-01	-7.159372E-04	2.086000E+01
-2.200989E-01	-7.162368E-04	2.131000E+01
-2.200912E-01	-7.165593E-04	2.175000E+01
-2.200989E-01	-7.168511E-04	2.220000E+01
-2.200989E-01	-7.171122E-04	2.263000E+01
-2.200989E-01	-7.174041E-04	2.307000E+01
-2.200989E-01	-7.177189E-04	2.353000E+01
-2.200989E-01	-7.180492E-04	2.397000E+01
-2.200989E-01	-7.183487E-04	2.442000E+01
-2.201066E-01	-7.186712E-04	2.486000E+01
-2.201066E-01	-7.189630E-04	2.530000E+01
-2.201142E-01	-7.192703E-04	2.574000E+01
-2.201142E-01	-7.196005E-04	2.619000E+01
-2.201219E-01	-7.199615E-04	2.663000E+01
-2.201066E-01	-7.203224E-04	2.707000E+01
-2.201066E-01	-7.206220E-04	2.752000E+01
-2.201066E-01	-7.208907E-04	2.796000E+01
-2.201066E-01	-7.212363E-04	2.841000E+01
-2.201066E-01	-7.215896E-04	2.884000E+01
-2.200989E-01	-7.219582E-04	2.930000E+01
-2.200989E-01	-7.225035E-04	3.019000E+01
-2.200989E-01	-7.227876E-04	3.063000E+01
-2.200989E-01	-7.231409E-04	3.107000E+01
-2.200989E-01	-7.233943E-04	3.152000E+01
-2.201066E-01	-7.236555E-04	3.195000E+01
-2.201066E-01	-7.239166E-04	3.240000E+01
-2.201066E-01	-7.241239E-04	3.284000E+01
-2.201142E-01	-7.243544E-04	3.329000E+01
-2.201142E-01	-7.245616E-04	3.373000E+01
-2.201142E-01	-7.248612E-04	3.418000E+01
-2.201142E-01	-7.251530E-04	3.462000E+01
-2.201142E-01	-7.253988E-04	3.506000E+01
-2.201066E-01	-7.257059E-04	3.551000E+01
-2.201066E-01	-7.259671E-04	3.594000E+01
-2.200989E-01	-7.262282E-04	3.639000E+01
-2.201066E-01	-7.265661E-04	3.683000E+01
-2.201066E-01	-7.268272E-04	3.728000E+01
-2.201066E-01	-7.270346E-04	3.772000E+01
-2.201066E-01	-7.272727E-04	3.817000E+01
-2.201066E-01	-7.275261E-04	3.861000E+01
-2.201066E-01	-7.278179E-04	3.905000E+01
-2.201142E-01	-7.283478E-04	3.994000E+01
-2.201142E-01	-7.286012E-04	4.039000E+01
-2.201066E-01	-7.288163E-04	4.083000E+01
-2.201066E-01	-7.290621E-04	4.128000E+01
-2.201066E-01	-7.293232E-04	4.172000E+01
-2.201066E-01	-7.296073E-04	4.217000E+01
-2.201066E-01	-7.298454E-04	4.261000E+01
-2.201142E-01	-7.300758E-04	4.304000E+01
-2.201066E-01	-7.302985E-04	4.349000E+01
-2.200989E-01	-7.305288E-04	4.393000E+01
-2.201066E-01	-7.308130E-04	4.438000E+01
-2.201066E-01	-7.310665E-04	4.483000E+01
-2.201066E-01	-7.313199E-04	4.528000E+01
-2.201066E-01	-7.315273E-04	4.571000E+01
-2.201066E-01	-7.317730E-04	4.616000E+01
-2.201142E-01	-7.319651E-04	4.660000E+01
-2.201142E-01	-7.322492E-04	4.704000E+01
-2.201142E-01	-7.324796E-04	4.749000E+01
-2.201142E-01	-7.327099E-04	4.793000E+01
-2.201142E-01	-7.329942E-04	4.838000E+01
-2.201142E-01	-7.331554E-04	4.881000E+01
-2.201066E-01	-7.332783E-04	4.926000E+01
-2.201066E-01	-7.337391E-04	5.015000E+01
-2.201066E-01	-7.340540E-04	5.059000E+01
-2.201066E-01	-7.342382E-04	5.103000E+01
-2.201066E-01	-7.345378E-04	5.148000E+01
-2.201066E-01	-7.347912E-04	5.192000E+01
-2.201066E-01	-7.350984E-04	5.236000E+01
-2.201066E-01	-7.353365E-04	5.280000E+01
-2.201066E-01	-7.355976E-04	5.325000E+01
-2.200989E-01	-7.359048E-04	5.369000E+01
-2.201142E-01	-7.361659E-04	5.414000E+01
-2.201142E-01	-7.362965E-04	5.458000E+01
-2.201142E-01	-7.365806E-04	5.502000E+01
-2.201066E-01	-7.368340E-04	5.548000E+01
-2.201142E-01	-7.370414E-04	5.591000E+01
-2.201066E-01	-7.372565E-04	5.636000E+01
-2.201066E-01	-7.374561E-04	5.680000E+01
-2.201142E-01	-7.376788E-04	5.725000E+01
-2.201142E-01	-7.378785E-04	5.769000E+01
-2.201142E-01	-7.381013E-04	5.817000E+01
-2.201066E-01	-7.383009E-04	5.860000E+01
-2.201066E-01	-7.384775E-04	5.904000E+01
-2.200989E-01	-7.388846E-04	5.993000E+01
-2.200989E-01	-7.390612E-04	6.038000E+01
-2.201066E-01	-7.392148E-04	6.082000E+01
-2.201066E-01	-7.394452E-04	6.126000E+01
-2.201066E-01	-7.396064E-04	6.170000E+01
-2.201066E-01	-7.398215E-04	6.215000E+01
-2.200989E-01	-7.399444E-04	6.259000E+01
-2.200989E-01	-7.402516E-04	6.303000E+01
-2.200989E-01	-7.404743E-04	6.348000E+01
-2.200989E-01	-7.406356E-04	6.391000E+01
-2.200989E-01	-7.408429E-04	6.436000E+01
-2.200989E-01	-7.410042E-04	6.480000E+01
-2.200989E-01	-7.411962E-04	6.525000E+01
-2.200989E-01	-7.413881E-04	6.569000E+01
-2.200989E-01	-7.416109E-04	6.614000E+01
-2.200989E-01	-7.418183E-04	6.658000E+01
-2.201066E-01	-7.420563E-04	6.702000E+01
-2.200989E-01	-7.423020E-04	6.746000E+01
-2.201066E-01	-7.424941E-04	6.791000E+01
-2.201066E-01	-7.426861E-04	6.836000E+01
-2.201142E-01	-7.429395E-04	6.879000E+01
-2.201142E-01	-7.431469E-04	6.924000E+01
-2.201142E-01	-7.436384E-04	7.013000E+01
-2.201142E-01	-7.438380E-04	7.056000E+01
-2.201142E-01	-7.440684E-04	7.100000E+01
-2.201142E-01	-7.443142E-04	7.145000E+01
-2.201142E-01	-7.445292E-04	7.189000E+01
-2.201066E-01	-7.447212E-04	7.234000E+01
-2.201142E-01	-7.449286E-04	7.278000E+01
-2.201142E-01	-7.450975E-04	7.323000E+01
-2.201142E-01	-7.453126E-04	7.367000E+01
-2.201142E-01	-7.455199E-04	7.411000E+01
-2.201066E-01	-7.457350E-04	7.456000E+01
-2.201066E-01	-7.459577E-04	7.499000E+01
-2.201066E-01	-7.461266E-04	7.544000E+01
-2.200989E-01	-7.462956E-04	7.588000E+01
-2.201066E-01	-7.464799E-04	7.633000E+01
-2.201066E-01	-7.466335E-04	7.677000E+01
-2.201066E-01	-7.468485E-04	7.722000E+01
-2.201066E-01	-7.470635E-04	7.766000E+01
-2.201142E-01	-7.472633E-04	7.811000E+01
-2.201066E-01	-7.474783E-04	7.854000E+01
-2.201142E-01	-7.478700E-04	7.898000E+01
-2.201142E-01	-7.482155E-04	7.987000E+01
-2.201066E-01	-7.483768E-04	8.032000E+01
-2.201066E-01	-7.485765E-04	8.076000E+01
-2.201219E-01	-7.487378E-04	8.121000E+01
-2.201142E-01	-7.489529E-04	8.164000E+01
-2.201219E-01	-7.492063E-04	8.208000E+01
-2.201142E-01	-7.493598E-04	8.254000E+01
-2.201142E-01	-7.495749E-04	8.298000E+01
-2.201142E-01	-7.497669E-04	8.343000E+01
-2.201142E-01	-7.499973E-04	8.386000E+01
-2.201142E-01	-7.501970E-04	8.431000E+01
-2.201066E-01	-7.503967E-04	8.475000E+01
-2.201066E-01	-7.505656E-04	8.520000E+01
-2.201066E-01	-7.507730E-04	8.564000E+01
-2.200989E-01	-7.509036E-04	8.608000E+01
-2.200989E-01	-7.510725E-04	8.653000E+01
-2.201066E-01	-7.512722E-04	8.696000E+01
-2.201066E-01	-7.514642E-04	8.741000E+01
-2.201142E-01	-7.516561E-04	8.785000E+01
-2.201142E-01	-7.518174E-04	8.830000E+01
-2.201142E-01	-7.519480E-04	8.874000E+01
-2.201142E-01	-7.519479E-04	8.919000E+01
-2.201066E-01	-7.521937E-04	9.006000E+01
-2.201066E-01	-7.523166E-04	9.051000E+01
-2.201066E-01	-7.524855E-04	9.095000E+01
-2.201066E-01	-7.526468E-04	9.140000E+01
-2.201066E-01	-7.528388E-04	9.184000E+01
-2.201142E-01	-7.530001E-04	9.229000E+01
-2.201219E-01	-7.531537E-04	9.273000E+01
-2.201142E-01	-7.532919E-04	9.318000E+01
-2.201142E-01	-7.534379E-04	9.362000E+01
-2.201219E-01	-7.535837E-04	9.406000E+01
-2.201066E-01	-7.537450E-04	9.450000E+01
-2.201142E-01	-7.538602E-04	9.494000E+01
-2.201142E-01	-7.540291E-04	9.539000E+01
-2.201142E-01	-7.542442E-04	9.583000E+01
-2.201066E-01	-7.543978E-04	9.628000E+01
-2.201066E-01	-7.546052E-04	9.672000E+01
-2.201066E-01	-7.547741E-04	9.717000E+01
-2.201142E-01	-7.549969E-04	9.760000E+01
-2.201142E-01	-7.550890E-04	9.805000E+01
-2.201142E-01	-7.552272E-04	9.850000E+01
-2.201142E-01	-7.554577E-04	9.894000E+01
-2.201066E-01	-7.558954E-04	9.982000E+01
-2.201142E-01	-7.560260E-04	1.002700E+02
-2.201219E-01	-7.562486E-04	1.007000E+02
-2.201142E-01	-7.564330E-04	1.011500E+02
-2.201142E-01	-7.565789E-04	1.015900E+02
-2.201066E-01	-7.567402E-04	1.020400E+02
-2.201066E-01	-7.568861E-04	1.024900E+02
-2.201066E-01	-7.570551E-04	1.029300E+02
-2.201142E-01	-7.572548E-04	1.033700E+02
-2.201142E-01	-7.573777E-04	1.038100E+02
-2.201066E-01	-7.574852E-04	1.042600E+02
-2.200989E-01	-7.575388E-04	1.047000E+02
-2.201066E-01	-7.577002E-04	1.051500E+02
-2.201066E-01	-7.579383E-04	1.055900E+02
-2.201066E-01	-7.581072E-04	1.060200E+02
-2.201066E-01	-7.582147E-04	1.064700E+02
-2.201142E-01	-7.584758E-04	1.069100E+02
-2.201066E-01	-7.586448E-04	1.073600E+02
-2.201142E-01	-7.587907E-04	1.078000E+02
-2.201142E-01	-7.588752E-04	1.082500E+02
-2.201066E-01	-7.591055E-04	1.086900E+02
-2.201066E-01	-7.592054E-04	1.091400E+02
-2.201066E-01	-7.594588E-04	1.100100E+02
-2.201066E-01	-7.596125E-04	1.104600E+02
-2.200989E-01	-7.597276E-04	1.109000E+02
-2.201066E-01	-7.598966E-04	1.113500E+02
-2.201066E-01	-7.600118E-04	1.117900E+02
-2.201142E-01	-7.601501E-04	1.122400E+02
-2.201066E-01	-7.603573E-04	1.126800E+02
-2.201066E-01	-7.605187E-04	1.131300E+02
-2.201142E-01	-7.606185E-04	1.135600E+02
-2.201142E-01	-7.607490E-04	1.140000E+02
-2.201142E-01	-7.609641E-04	1.144500E+02
-2.201066E-01	-7.611561E-04	1.148900E+02
-2.201066E-01	-7.612405E-04	1.153400E+02
-2.201066E-01	-7.613327E-04	1.157800E+02
-2.200989E-01	-7.614479E-04	1.162300E+02
-2.200989E-01	-7.615324E-04	1.166700E+02
-2.201066E-01	-7.618243E-04	1.171100E+02
-2.201066E-01	-7.619088E-04	1.175500E+02
-2.201066E-01	-7.621468E-04	1.179900E+02
-2.201066E-01	-7.623081E-04	1.184400E+02
-2.201142E-01	-7.624694E-04	1.188800E+02
-2.201066E-01	-7.626537E-04	1.197700E+02
-2.201142E-01	-7.628610E-04	1.202200E+02
-2.201142E-01	-7.628841E-04	1.206500E+02
-2.201142E-01	-7.630454E-04	1.211000E+02
-2.200989E-01	-7.631682E-04	1.215400E+02
-2.200989E-01	-7.632911E-04	1.219800E+02
-2.201066E-01	-7.634063E-04	1.224400E+02
-2.201066E-01	-7.634985E-04	1.228700E+02
-2.201066E-01	-7.636136E-04	1.233200E+02
-2.201066E-01	-7.637289E-04	1.237600E+02
-2.201142E-01	-7.638517E-04	1.242100E+02
-2.201142E-01	-7.640899E-04	1.246500E+02
-2.201142E-01	-7.641896E-04	1.251000E+02
-2.201066E-01	-7.643586E-04	1.255400E+02
-2.201142E-01	-7.643355E-04	1.259700E+02
-2.200989E-01	-7.645276E-04	1.264200E+02
-2.201066E-01	-7.646044E-04	1.268600E+02
-2.201066E-01	-7.647580E-04	1.273100E+02
-2.201142E-01	-7.648347E-04	1.277500E+02
-2.201142E-01	-7.650421E-04	1.282000E+02
-2.201142E-01	-7.651036E-04	1.286400E+02
-2.201142E-01	-7.649960E-04	1.290800E+02
-2.201066E-01	-7.652570E-04	1.299700E+02
-2.201142E-01	-7.653569E-04	1.304100E+02
-2.201066E-01	-7.655335E-04	1.308500E+02
-2.200989E-01	-7.656641E-04	1.313000E+02
-2.201066E-01	-7.657947E-04	1.317400E+02
-2.201066E-01	-7.659405E-04	1.321900E+02
-2.201066E-01	-7.660250E-04	1.326300E+02
-2.201142E-01	-7.662171E-04	1.330700E+02
-2.201142E-01	-7.662247E-04	1.335200E+02
-2.201142E-01	-7.664014E-04	1.339500E+02
-2.201066E-01	-7.664706E-04	1.344000E+02
-2.201066E-01	-7.665626E-04	1.348400E+02
-2.201066E-01	-7.666931E-04	1.352900E+02
-2.201066E-01	-7.667853E-04	1.357300E+02
-2.201066E-01	-7.668929E-04	1.361800E+02
-2.201066E-01	-7.670772E-04	1.366200E+02
-2.201066E-01	-7.672692E-04	1.370600E+02
-2.201066E-01	-7.673767E-04	1.375100E+02
-2.201066E-01	-7.674613E-04	1.379500E+02
-2.201142E-01	-7.675687E-04	1.384200E+02
-2.201142E-01	-7.677762E-04	1.388600E+02
-2.201066E-01	-7.679528E-04	1.393100E+02
-2.201066E-01	-7.681678E-04	1.401900E+02
-2.201066E-01	-7.682523E-04	1.406300E+02
-2.201066E-01	-7.683828E-04	1.410700E+02
-2.201142E-01	-7.684520E-04	1.415200E+02
-2.201066E-01	-7.686362E-04	1.419500E+02
-2.200989E-01	-7.687592E-04	1.424000E+02
-2.200989E-01	-7.689435E-04	1.428400E+02
-2.201066E-01	-7.691047E-04	1.432900E+02
-2.201066E-01	-7.691047E-04	1.437300E+02
-2.201142E-01	-7.691585E-04	1.441800E+02
-2.201066E-01	-7.692430E-04	1.446200E+02
-2.201142E-01	-7.694119E-04	1.450600E+02
-2.201066E-01	-7.694426E-04	1.455100E+02
-2.201066E-01	-7.694964E-04	1.459500E+02
-2.201066E-01	-7.695886E-04	1.464000E+02
-2.201142E-01	-7.695808E-04	1.468400E+02
-2.201066E-01	-7.696884E-04	1.472900E+02
-2.200989E-01	-7.698112E-04	1.477300E+02
-2.200989E-01	-7.698881E-04	1.481700E+02
-2.200989E-01	-7.699342E-04	1.486100E+02
-2.201142E-01	-7.701646E-04	1.490500E+02
-2.201219E-01	-7.703719E-04	1.499500E+02
-2.201142E-01	-7.704411E-04	1.504000E+02
-2.201142E-01	-7.704488E-04	1.508400E+02
-2.201142E-01	-7.705946E-04	1.512900E+02
-2.201142E-01	-7.706944E-04	1.517300E+02
-2.201142E-01	-7.707789E-04	1.521800E+02
-2.201142E-01	-7.708404E-04	1.526200E+02
-2.201142E-01	-7.709787E-04	1.530500E+02
-2.201066E-01	-7.710554E-04	1.535000E+02
-2.201142E-01	-7.711015E-04	1.539400E+02
-2.201142E-01	-7.712244E-04	1.543900E+02
-2.201142E-01	-7.713396E-04	1.548300E+02
-2.201142E-01	-7.715009E-04	1.552800E+02
-2.201219E-01	-7.716929E-04	1.557200E+02
-2.201142E-01	-7.717083E-04	1.561700E+02
-2.201142E-01	-7.717466E-04	1.566000E+02
-2.201219E-01	-7.718005E-04	1.570400E+02
-2.201219E-01	-7.718388E-04	1.574900E+02
-2.201219E-01	-7.719079E-04	1.579300E+02
-2.201219E-01	-7.719540E-04	1.583800E+02
-2.201142E-01	-7.720538E-04	1.588100E+02
-2.200989E-01	-7.720384E-04	1.592600E+02
-2.201066E-01	-7.721920E-04	1.601500E+02
-2.200989E-01	-7.722919E-04	1.605900E+02
-2.200989E-01	-7.723456E-04	1.610300E+02
-2.201066E-01	-7.724377E-04	1.614700E+02
-2.200989E-01	-7.724685E-04	1.619100E+02
-2.201066E-01	-7.725453E-04	1.623600E+02
-2.201066E-01	-7.726452E-04	1.628000E+02
-2.201066E-01	-7.727373E-04	1.632500E+02
-2.201066E-01	-7.729446E-04	1.636900E+02
-2.201066E-01	-7.730445E-04	1.641400E+02
-2.200989E-01	-7.730522E-04	1.645800E+02
-2.200989E-01	-7.731289E-04	1.650100E+02
-2.200989E-01	-7.732672E-04	1.654600E+02
-2.200989E-01	-7.734208E-04	1.659000E+02
-2.201066E-01	-7.735052E-04	1.663500E+02
-2.201066E-01	-7.734976E-04	1.667900E+02
-2.201066E-01	-7.735975E-04	1.672400E+02
-2.201066E-01	-7.736589E-04	1.676800E+02
-2.201066E-01	-7.738585E-04	1.681300E+02
-2.200989E-01	-7.738355E-04	1.685700E+02
-2.200989E-01	-7.741120E-04	1.690000E+02
-2.200989E-01	-7.742963E-04	1.698900E+02
-2.201142E-01	-7.743654E-04	1.703400E+02
-2.201142E-01	-7.743885E-04	1.707900E+02
-2.201066E-01	-7.744653E-04	1.712400E+02
-2.201142E-01	-7.746419E-04	1.716700E+02
-2.201142E-01	-7.746726E-04	1.721200E+02
-2.201219E-01	-7.747802E-04	1.725600E+02
-2.201219E-01	-7.748723E-04	1.730000E+02
-2.201066E-01	-7.749491E-04	1.734500E+02
-2.200989E-01	-7.749798E-04	1.738900E+02
-2.201066E-01	-7.750643E-04	1.743400E+02
-2.201066E-01	-7.751641E-04	1.747700E+02
-2.201142E-01	-7.751872E-04	1.752200E+02
-2.201142E-01	-7.753561E-04	1.756600E+02
-2.201066E-01	-7.753945E-04	1.761100E+02
-2.201142E-01	-7.755635E-04	1.765500E+02
-2.201142E-01	-7.755328E-04	1.769900E+02
-2.201066E-01	-7.756018E-04	1.774400E+02
-2.200989E-01	-7.757171E-04	1.778800E+02
-2.200989E-01	-7.757171E-04	1.783200E+02
-2.201066E-01	-7.757555E-04	1.787600E+02
-2.201142E-01	-7.758476E-04	1.792100E+02
-2.201066E-01	-7.760549E-04	1.801000E+02
-2.201142E-01	-7.760166E-04	1.805400E+02
-2.201142E-01	-7.760780E-04	1.809800E+02
-2.200989E-01	-7.761471E-04	1.814300E+02
-2.200989E-01	-7.762624E-04	1.818600E+02
-2.200989E-01	-7.764313E-04	1.823200E+02
-2.201066E-01	-7.764697E-04	1.827500E+02
-2.201066E-01	-7.764928E-04	1.832000E+02
-2.201142E-01	-7.763852E-04	1.836400E+02
-2.201142E-01	-7.764697E-04	1.840800E+02
-2.201066E-01	-7.765312E-04	1.845300E+02
-2.201066E-01	-7.766695E-04	1.849600E+02
-2.201142E-01	-7.767001E-04	1.854100E+02
-2.201066E-01	-7.769689E-04	1.858500E+02
-2.201066E-01	-7.770150E-04	1.863100E+02
-2.201142E-01	-7.769382E-04	1.867500E+02
-2.201142E-01	-7.769612E-04	1.872000E+02
-2.200989E-01	-7.770765E-04	1.876300E+02
-2.200989E-01	-7.771685E-04	1.880700E+02
-2.201066E-01	-7.771916E-04	1.885200E+02
-2.201219E-01	-7.772760E-04	1.889600E+02
-2.201219E-01	-7.774220E-04	1.898400E+02
-2.201296E-01	-7.775219E-04	1.902900E+02
-2.201142E-01	-7.775141E-04	1.907300E+02
-2.201066E-01	-7.775219E-04	1.911800E+02
-2.201142E-01	-7.775141E-04	1.916200E+02
-2.201219E-01	-7.776677E-04	1.920600E+02
-2.201142E-01	-7.777060E-04	1.925100E+02
-2.201142E-01	-7.777060E-04	1.929500E+02
-2.201219E-01	-7.778059E-04	1.934000E+02
-2.201219E-01	-7.778443E-04	1.938400E+02
-2.201142E-01	-7.778981E-04	1.942900E+02
-2.201066E-01	-7.780286E-04	1.947300E+02
-2.201066E-01	-7.780364E-04	1.951700E+02
-2.201142E-01	-7.780901E-04	1.956100E+02
-2.201142E-01	-7.782206E-04	1.960500E+02
-2.201142E-01	-7.783128E-04	1.965000E+02
-2.201219E-01	-7.782821E-04	1.969400E+02
-2.201219E-01	-7.783589E-04	1.973900E+02
-2.201142E-01	-7.784818E-04	1.978300E+02
-2.201066E-01	-7.784588E-04	1.982800E+02
-2.201142E-01	-7.784971E-04	1.987100E+02
-2.201066E-01	-7.786892E-04	1.991600E+02
-2.201066E-01	-7.788505E-04	2.000400E+02
-2.201142E-01	-7.789810E-04	2.004900E+02
-2.201142E-01	-7.789427E-04	2.009300E+02
-2.201142E-01	-7.791346E-04	2.013700E+02
-2.201066E-01	-7.791193E-04	2.018100E+02
-2.200989E-01	-7.792806E-04	2.022600E+02
-2.201066E-01	-7.793803E-04	2.027000E+02
-2.201142E-01	-7.794495E-04	2.031500E+02
-2.201142E-01	-7.795954E-04	2.035900E+02
-2.201066E-01	-7.795647E-04	2.040200E+02
-2.201142E-01	-7.796031E-04	2.044700E+02
-2.201142E-01	-7.797106E-04	2.049100E+02
-2.201142E-01	-7.797490E-04	2.053600E+02
-2.201142E-01	-7.796722E-04	2.058000E+02
-2.201066E-01	-7.797721E-04	2.062500E+02
-2.200989E-01	-7.798335E-04	2.066900E+02
-2.200989E-01	-7.798873E-04	2.071300E+02
-2.201066E-01	-7.799871E-04	2.075700E+02
-2.201066E-01	-7.801330E-04	2.080100E+02
-2.201066E-01	-7.802482E-04	2.084600E+02
-2.201142E-01	-7.800792E-04	2.089000E+02
-2.201142E-01	-7.801944E-04	2.097800E+02
-2.201142E-01	-7.803326E-04	2.102300E+02
-2.201219E-01	-7.803710E-04	2.106700E+02
-2.201142E-01	-7.803864E-04	2.111200E+02
-2.201142E-01	-7.804786E-04	2.115600E+02
-2.201142E-01	-7.804786E-04	2.120000E+02
-2.201142E-01	-7.805092E-04	2.124500E+02
-2.201066E-01	-7.805630E-04	2.128900E+02
-2.201066E-01	-7.806245E-04	2.133400E+02
-2.200989E-01	-7.806629E-04	2.137800E+02
-2.200989E-01	-7.807320E-04	2.142200E+02
-2.200989E-01	-7.807167E-04	2.146600E+02
-2.201066E-01	-7.807242E-04	2.151100E+02
-2.201066E-01	-7.807781E-04	2.155500E+02
-2.200989E-01	-7.808933E-04	2.159900E+02
-2.201066E-01	-7.808395E-04	2.164400E+02
-2.201142E-01	-7.808242E-04	2.168800E+02
-2.201066E-01	-7.808856E-04	2.173200E+02
-2.201066E-01	-7.809240E-04	2.177600E+02
-2.201066E-01	-7.809470E-04	2.182400E+02
-2.201142E-01	-7.809470E-04	2.186800E+02
-2.201142E-01	-7.810161E-04	2.191300E+02
-2.201066E-01	-7.811390E-04	2.200100E+02
-2.201142E-01	-7.812312E-04	2.204600E+02
-2.201142E-01	-7.813003E-04	2.209000E+02
-2.201142E-01	-7.813464E-04	2.213500E+02
-2.201142E-01	-7.814001E-04	2.217800E+02
-2.201142E-01	-7.814692E-04	2.222300E+02
-2.201142E-01	-7.814385E-04	2.226700E+02
-2.201142E-01	-7.814692E-04	2.231200E+02
-2.201142E-01	-7.815614E-04	2.235600E+02
-2.201142E-01	-7.816305E-04	2.240000E+02
-2.200989E-01	-7.817150E-04	2.244500E+02
-2.200912E-01	-7.817610E-04	2.248800E+02
-2.200989E-01	-7.818302E-04	2.253300E+02
-2.200989E-01	-7.818686E-04	2.257700E+02
-2.200989E-01	-7.818302E-04	2.262200E+02
-2.200989E-01	-7.818763E-04	2.266600E+02
-2.201066E-01	-7.819607E-04	2.271100E+02
-2.201142E-01	-7.820221E-04	2.275500E+02
-2.201142E-01	-7.820452E-04	2.279800E+02
-2.201142E-01	-7.820990E-04	2.284300E+02
-2.201142E-01	-7.817688E-04	2.288700E+02
-2.201219E-01	-7.818379E-04	2.293200E+02
-2.201219E-01	-7.819378E-04	2.302100E+02
-2.201142E-01	-7.820606E-04	2.306500E+02
-2.201142E-01	-7.820683E-04	2.310800E+02
-2.201066E-01	-7.821834E-04	2.315300E+02
-2.201066E-01	-7.821912E-04	2.319700E+02
-2.201066E-01	-7.822679E-04	2.324200E+02
-2.201066E-01	-7.822526E-04	2.328600E+02
-2.201219E-01	-7.822833E-04	2.333100E+02
-2.201142E-01	-7.823371E-04	2.337500E+02
-2.201219E-01	-7.823755E-04	2.342000E+02
-2.201219E-01	-7.823371E-04	2.346400E+02
-2.201219E-01	-7.823371E-04	2.350800E+02
-2.201219E-01	-7.824293E-04	2.355300E+02
-2.201219E-01	-7.825138E-04	2.359600E+02
-2.201219E-01	-7.825598E-04	2.364100E+02
-2.201142E-01	-7.826980E-04	2.368500E+02
-2.201066E-01	-7.827979E-04	2.373000E+02
-2.201066E-01	-7.828209E-04	2.377400E+02
-2.201142E-01	-7.829131E-04	2.381800E+02
-2.201219E-01	-7.828670E-04	2.386300E+02
-2.201066E-01	-7.827287E-04	2.390600E+02
-2.201142E-01	-7.829284E-04	2.399500E+02
-2.201142E-01	-7.829514E-04	2.404000E+02
-2.201142E-01	-7.829898E-04	2.408300E+02
-2.201219E-01	-7.829130E-04	2.412800E+02
-2.201219E-01	-7.830282E-04	2.417200E+02
-2.201142E-01	-7.830206E-04	2.421700E+02
-2.200989E-01	-7.830282E-04	2.426100E+02
-2.200989E-01	-7.829668E-04	2.430500E+02
-2.201066E-01	-7.829975E-04	2.435000E+02
-2.200989E-01	-7.830973E-04	2.439400E+02
-2.201066E-01	-7.831051E-04	2.443900E+02
-2.201142E-01	-7.831203E-04	2.448200E+02
-2.201142E-01	-7.831972E-04	2.452700E+02
-2.201142E-01	-7.831664E-04	2.457100E+02
-2.201219E-01	-7.832125E-04	2.461600E+02
-2.201142E-01	-7.833507E-04	2.466000E+02
-2.201219E-01	-7.834122E-04	2.470400E+02
-2.201142E-01	-7.834429E-04	2.474900E+02
-2.201142E-01	-7.835505E-04	2.479300E+02
-2.201142E-01	-7.835351E-04	2.483800E+02
-2.200989E-01	-7.834890E-04	2.488100E+02
-2.200989E-01	-7.837656E-04	2.492700E+02
-2.200989E-01	-7.838500E-04	2.501600E+02
-2.201066E-01	-7.838500E-04	2.506000E+02
-2.201142E-01	-7.839192E-04	2.510400E+02
-2.201066E-01	-7.839115E-04	2.514800E+02
-2.201142E-01	-7.840190E-04	2.519200E+02
-2.201142E-01	-7.839960E-04	2.523700E+02
-2.201142E-01	-7.840881E-04	2.528100E+02
-2.201142E-01	-7.841035E-04	2.532600E+02
-2.201066E-01	-7.841035E-04	2.537000E+02
-2.201066E-01	-7.840958E-04	2.541500E+02
-2.200989E-01	-7.841035E-04	2.545900E+02
-2.200912E-01	-7.842263E-04	2.550300E+02
-2.200989E-01	-7.842954E-04	2.554800E+02
-2.200989E-01	-7.842724E-04	2.559200E+02
-2.201066E-01	-7.842418E-04	2.563700E+02
-2.201142E-01	-7.842648E-04	2.568100E+02
-2.201219E-01	-7.843262E-04	2.572600E+02
-2.201142E-01	-7.843800E-04	2.576900E+02
-2.201219E-01	-7.844030E-04	2.581400E+02
-2.201219E-01	-7.844414E-04	2.585800E+02
-2.201219E-01	-7.844491E-04	2.590200E+02
-2.200989E-01	-7.843876E-04	2.599100E+02
-2.200989E-01	-7.844491E-04	2.603600E+02
-2.200989E-01	-7.844798E-04	2.607900E+02
-2.201066E-01	-7.844414E-04	2.612400E+02
-2.201066E-01	-7.844952E-04	2.616800E+02
-2.201066E-01	-7.845258E-04	2.621300E+02
-2.201142E-01	-7.846180E-04	2.625700E+02
-2.201142E-01	-7.845566E-04	2.630100E+02
-2.201142E-01	-7.845873E-04	2.634500E+02
-2.201142E-01	-7.846103E-04	2.638900E+02
-2.201066E-01	-7.845719E-04	2.643400E+02
-2.201142E-01	-7.846411E-04	2.647800E+02
-2.200989E-01	-7.846103E-04	2.652200E+02
-2.200912E-01	-7.847256E-04	2.656600E+02
-2.200989E-01	-7.847869E-04	2.661100E+02
-2.201066E-01	-7.847716E-04	2.665500E+02
-2.201066E-01	-7.847716E-04	2.669900E+02
-2.201142E-01	-7.848408E-04	2.674400E+02
-2.201142E-01	-7.848945E-04	2.678700E+02
-2.201142E-01	-7.849637E-04	2.683200E+02
-2.201142E-01	-7.851095E-04	2.687600E+02
-2.201066E-01	-7.851556E-04	2.692100E+02
-2.200989E-01	-7.852017E-04	2.701000E+02
-2.200989E-01	-7.852017E-04	2.705400E+02
-2.201066E-01	-7.851633E-04	2.709800E+02
-2.201142E-01	-7.851633E-04	2.714300E+02
-2.201142E-01	-7.852708E-04	2.718700E+02
-2.201142E-01	-7.852631E-04	2.723200E+02
-2.201066E-01	-7.852939E-04	2.727600E+02
-2.200912E-01	-7.853476E-04	2.732100E+02
-2.200989E-01	-7.853245E-04	2.736400E+02
-2.201066E-01	-7.852478E-04	2.740800E+02
-2.201142E-01	-7.852248E-04	2.745300E+02
-2.201142E-01	-7.853015E-04	2.749700E+02
-2.201219E-01	-7.853323E-04	2.754200E+02
-2.201142E-01	-7.853706E-04	2.758600E+02
-2.201066E-01	-7.853783E-04	2.763100E+02
-2.200989E-01	-7.853245E-04	2.767500E+02
-2.201066E-01	-7.853323E-04	2.772000E+02
-2.201142E-01	-7.854628E-04	2.776400E+02
-2.201142E-01	-7.855473E-04	2.780700E+02
-2.201142E-01	-7.855165E-04	2.785200E+02
-2.201219E-01	-7.854782E-04	2.789600E+02
-2.200989E-01	-7.854321E-04	2.798500E+02
-2.200989E-01	-7.853553E-04	2.803000E+02
-2.201066E-01	-7.853476E-04	2.807400E+02
-2.201142E-01	-7.853860E-04	2.811800E+02
-2.201142E-01	-7.853322E-04	2.816200E+02
-2.201066E-01	-7.854398E-04	2.820600E+02
-2.201066E-01	-7.854705E-04	2.825100E+02
-2.200989E-01	-7.855242E-04	2.829500E+02
-2.200989E-01	-7.855857E-04	2.834000E+02
-2.200989E-01	-7.856010E-04	2.838400E+02
-2.201066E-01	-7.856932E-04	2.842800E+02
-2.201066E-01	-7.856856E-04	2.847200E+02
-2.201066E-01	-7.856241E-04	2.851700E+02
-2.201142E-01	-7.857546E-04	2.856100E+02
-2.201142E-01	-7.858007E-04	2.860500E+02
-2.201066E-01	-7.858237E-04	2.865000E+02
-2.200989E-01	-7.857623E-04	2.869400E+02
-2.201066E-01	-7.858468E-04	2.873900E+02
-2.201142E-01	-7.857853E-04	2.878200E+02
-2.201219E-01	-7.857700E-04	2.882700E+02
-2.201142E-01	-7.858468E-04	2.887100E+02
-2.201142E-01	-7.858084E-04	2.891600E+02
-2.201142E-01	-7.859466E-04	2.900400E+02
-2.200989E-01	-7.859466E-04	2.904800E+02
-2.200989E-01	-7.860003E-04	2.909200E+02
-2.201066E-01	-7.859927E-04	2.913700E+02
-2.201142E-01	-7.859159E-04	2.918100E+02
-2.201142E-01	-7.859696E-04	2.922600E+02
-2.201219E-01	-7.859542E-04	2.927000E+02
-2.201142E-01	-7.860925E-04	2.931400E+02
-2.201219E-01	-7.860464E-04	2.935800E+02
-2.201142E-01	-7.861233E-04	2.940200E+02
-2.201066E-01	-7.861002E-04	2.944700E+02
-2.200989E-01	-7.861002E-04	2.949100E+02
-2.200989E-01	-7.860925E-04	2.953600E+02
-2.201066E-01	-7.860695E-04	2.958000E+02
-2.201066E-01	-7.861233E-04	2.962400E+02
-2.201066E-01	-7.860772E-04	2.966800E+02
-2.201142E-01	-7.861155E-04	2.971300E+02
-2.201219E-01	-7.861846E-04	2.975700E+02
-2.201219E-01	-7.862384E-04	2.980400E+02
-2.201142E-01	-7.862384E-04	2.984800E+02
-2.201142E-01	-7.863306E-04	2.989200E+02
-2.200989E-01	-7.863690E-04	2.998100E+02
-2.200989E-01	-7.863306E-04	3.002600E+02
-2.200989E-01	-7.863535E-04	3.006900E+02
-2.201066E-01	-7.862922E-04	3.011400E+02
-2.201142E-01	-7.862999E-04	3.015800E+02
-2.201219E-01	-7.862538E-04	3.020200E+02
-2.201142E-01	-7.862307E-04	3.024700E+02
-2.201142E-01	-7.863613E-04	3.029100E+02
-2.201219E-01	-7.863766E-04	3.033600E+02
-2.201142E-01	-7.863921E-04	3.038000E+02
-2.201219E-01	-7.864074E-04	3.042400E+02
-2.201219E-01	-7.864074E-04	3.046800E+02
-2.201219E-01	-7.864457E-04	3.051300E+02
-2.201142E-01	-7.864457E-04	3.055700E+02
-2.201142E-01	-7.865610E-04	3.060100E+02
-2.201142E-01	-7.866225E-04	3.064600E+02
-2.201142E-01	-7.866378E-04	3.069000E+02
-2.200989E-01	-7.867376E-04	3.073500E+02
-2.200989E-01	-7.867376E-04	3.077900E+02
-2.200989E-01	-7.867991E-04	3.082300E+02
-2.200989E-01	-7.868221E-04	3.086700E+02
-2.200989E-01	-7.867991E-04	3.091200E+02
-2.200989E-01	-7.868605E-04	3.100000E+02
-2.201066E-01	-7.868298E-04	3.104400E+02
-2.201142E-01	-7.868988E-04	3.108800E+02
-2.201066E-01	-7.868988E-04	3.113300E+02
-2.201142E-01	-7.868988E-04	3.117700E+02
-2.201142E-01	-7.869296E-04	3.122300E+02
-2.201142E-01	-7.869527E-04	3.126700E+02
-2.201066E-01	-7.869833E-04	3.131200E+02
-2.201142E-01	-7.869910E-04	3.135600E+02
-2.201142E-01	-7.870141E-04	3.139900E+02
-2.201219E-01	-7.870679E-04	3.144400E+02
-2.201142E-01	-7.871523E-04	3.148800E+02
-2.201142E-01	-7.872137E-04	3.153300E+02
-2.201142E-01	-7.872675E-04	3.157700E+02
-2.201142E-01	-7.872675E-04	3.162200E+02
-2.201219E-01	-7.873059E-04	3.166600E+02
-2.201142E-01	-7.873597E-04	3.171100E+02
-2.201142E-01	-7.873903E-04	3.175500E+02
-2.201142E-01	-7.873750E-04	3.179900E+02
-2.201142E-01	-7.873903E-04	3.184300E+02
-2.201142E-01	-7.874058E-04	3.188700E+02
-2.201066E-01	-7.873443E-04	3.193200E+02
-2.201142E-01	-7.873213E-04	3.202000E+02
-2.201066E-01	-7.873673E-04	3.206400E+02
-2.200989E-01	-7.873980E-04	3.210800E+02
-2.200989E-01	-7.873673E-04	3.215300E+02
-2.200989E-01	-7.873213E-04	3.219700E+02
-2.200989E-01	-7.873597E-04	3.224200E+02
-2.200989E-01	-7.873827E-04	3.228600E+02
-2.200989E-01	-7.874595E-04	3.233100E+02
-2.200989E-01	-7.874902E-04	3.237500E+02
-2.200912E-01	-7.874825E-04	3.242000E+02
-2.200912E-01	-7.874595E-04	3.246400E+02
-2.200989E-01	-7.874364E-04	3.250700E+02
-2.201066E-01	-7.874288E-04	3.255200E+02
-2.201066E-01	-7.874672E-04	3.259600E+02
-2.201066E-01	-7.874441E-04	3.264100E+02
-2.201142E-01	-7.874134E-04	3.268600E+02
-2.201066E-01	-7.873904E-04	3.273100E+02
-2.201066E-01	-7.874364E-04	3.277400E+02
-2.201066E-01	-7.874288E-04	3.281900E+02
-2.201142E-01	-7.874288E-04	3.286300E+02
-2.201142E-01	-7.874595E-04	3.290700E+02
-2.201142E-01	-7.874595E-04	3.299500E+02
-2.201142E-01	-7.875133E-04	3.304000E+02
-2.201142E-01	-7.875286E-04	3.308300E+02
-2.201142E-01	-7.875056E-04	3.312900E+02
-2.201066E-01	-7.875363E-04	3.317300E+02
-2.201142E-01	-7.874749E-04	3.321800E+02
-2.201066E-01	-7.874211E-04	3.326200E+02
-2.201066E-01	-7.873904E-04	3.330600E+02
-2.201142E-01	-7.874211E-04	3.335100E+02
-2.201142E-01	-7.874519E-04	3.339400E+02
-2.201142E-01	-7.874211E-04	3.343900E+02
-2.201142E-01	-7.874134E-04	3.348300E+02
-2.201066E-01	-7.874365E-04	3.352800E+02
-2.201142E-01	-7.874749E-04	3.357200E+02
-2.201219E-01	-7.874519E-04	3.361700E+02
-2.201219E-01	-7.874441E-04	3.366000E+02
-2.201142E-01	-7.873980E-04	3.370400E+02
-2.201142E-01	-7.874058E-04	3.374900E+02
-2.201142E-01	-7.874134E-04	3.379300E+02
-2.201142E-01	-7.875210E-04	3.383800E+02
-2.201219E-01	-7.875977E-04	3.388200E+02
-2.201219E-01	-7.876131E-04	3.392700E+02
-2.201142E-01	-7.876131E-04	3.401500E+02
-2.201142E-01	-7.876361E-04	3.405900E+02
-2.201219E-01	-7.876361E-04	3.410300E+02
-2.201142E-01	-7.876438E-04	3.414800E+02
-2.201142E-01	-7.876592E-04	3.419200E+02
-2.201142E-01	-7.876592E-04	3.423700E+02
-2.201066E-01	-7.876976E-04	3.428100E+02
-2.200989E-01	-7.877129E-04	3.432600E+02
-2.200912E-01	-7.878204E-04	3.437000E+02
-2.200989E-01	-7.877590E-04	3.441400E+02
-2.200989E-01	-7.877283E-04	3.445800E+02
-2.200989E-01	-7.877974E-04	3.450200E+02
-2.201142E-01	-7.878281E-04	3.454700E+02
-2.201142E-01	-7.878128E-04	3.459100E+02
-2.201142E-01	-7.878819E-04	3.463500E+02
-2.201142E-01	-7.878358E-04	3.467900E+02
-2.201066E-01	-7.877898E-04	3.472400E+02
-2.201066E-01	-7.877437E-04	3.476800E+02
-2.201142E-01	-7.877744E-04	3.481300E+02
-2.201142E-01	-7.878204E-04	3.485700E+02
-2.201142E-01	-7.877898E-04	3.490100E+02
-2.201142E-01	-7.878204E-04	3.498900E+02
-2.201142E-01	-7.878742E-04	3.503400E+02
-2.201142E-01	-7.878512E-04	3.507800E+02
-2.201142E-01	-7.878358E-04	3.512300E+02
-2.201142E-01	-7.878512E-04	3.516700E+02
-2.201142E-01	-7.878742E-04	3.521200E+02
-2.201142E-01	-7.878665E-04	3.525600E+02
-2.201142E-01	-7.879279E-04	3.530000E+02
-2.201066E-01	-7.878973E-04	3.534400E+02
-2.201066E-01	-7.879049E-04	3.538800E+02
-2.200989E-01	-7.878819E-04	3.543300E+02
-2.200989E-01	-7.879126E-04	3.547700E+02
-2.200989E-01	-7.879894E-04	3.552200E+02
-2.200912E-01	-7.878819E-04	3.556600E+02
-2.200989E-01	-7.878742E-04	3.561000E+02
-2.200989E-01	-7.878819E-04	3.565400E+02
-2.200989E-01	-7.878896E-04	3.569800E+02
-2.200989E-01	-7.879049E-04	3.574300E+02
-2.200989E-01	-7.879434E-04	3.578700E+02
-2.200989E-01	-7.879664E-04	3.583200E+02
-2.201142E-01	-7.879279E-04	3.587600E+02
-2.201142E-01	-7.879126E-04	3.592100E+02
-2.201066E-01	-7.878665E-04	3.601000E+02
-2.201142E-01	-7.878435E-04	3.605400E+02
-2.201066E-01	-7.878512E-04	3.609800E+02
-2.201142E-01	-7.878973E-04	3.614300E+02
-2.201142E-01	-7.879740E-04	3.618700E+02
-2.201142E-01	-7.879740E-04	3.623200E+02
-2.201142E-01	-7.880125E-04	3.627600E+02
-2.201142E-01	-7.880125E-04	3.632000E+02
-2.201142E-01	-7.880585E-04	3.636400E+02
-2.201142E-01	-7.880816E-04	3.640800E+02
-2.201142E-01	-7.880585E-04	3.645300E+02
-2.201142E-01	-7.881123E-04	3.649700E+02
-2.201142E-01	-7.881430E-04	3.654200E+02
-2.201142E-01	-7.881661E-04	3.658500E+02
-2.201142E-01	-7.881738E-04	3.663100E+02
-2.201142E-01	-7.882275E-04	3.667400E+02
-2.201142E-01	-7.882505E-04	3.671900E+02
-2.201142E-01	-7.883580E-04	3.676300E+02
-2.201142E-01	-7.884425E-04	3.680700E+02
-2.201142E-01	-7.884272E-04	3.685200E+02
-2.201142E-01	-7.886346E-04	3.689500E+02
-2.201142E-01	-7.885807E-04	3.698400E+02
-2.201219E-01	-7.885732E-04	3.702900E+02
-2.201142E-01	-7.884887E-04	3.707300E+02
-2.201142E-01	-7.884733E-04	3.711800E+02
-2.201142E-01	-7.885271E-04	3.716200E+02
-2.201142E-01	-7.885117E-04	3.720500E+02
-2.201142E-01	-7.884963E-04	3.725000E+02
-2.201066E-01	-7.885040E-04	3.729400E+02
-2.200989E-01	-7.884810E-04	3.733900E+02
-2.200989E-01	-7.884502E-04	3.738300E+02
-2.200989E-01	-7.884502E-04	3.742800E+02
-2.200989E-01	-7.884426E-04	3.747200E+02
-2.200989E-01	-7.884349E-04	3.751700E+02
-2.200989E-01	-7.884349E-04	3.756000E+02
-2.201066E-01	-7.884502E-04	3.760400E+02
-2.201066E-01	-7.885271E-04	3.764900E+02
-2.201142E-01	-7.885348E-04	3.769300E+02
-2.201142E-01	-7.885732E-04	3.773800E+02
-2.201142E-01	-7.886729E-04	3.778200E+02
-2.201142E-01	-7.886653E-04	3.783000E+02
-2.201142E-01	-7.887344E-04	3.787300E+02
-2.201219E-01	-7.887114E-04	3.791800E+02
-2.201219E-01	-7.886960E-04	3.800600E+02
-2.201219E-01	-7.887037E-04	3.805100E+02
-2.201219E-01	-7.887421E-04	3.809500E+02
-2.201219E-01	-7.887267E-04	3.814000E+02
-2.201142E-01	-7.887498E-04	3.818300E+02
-2.201066E-01	-7.887114E-04	3.822900E+02
-2.201066E-01	-7.887114E-04	3.827300E+02
-2.201219E-01	-7.886729E-04	3.831800E+02
-2.201142E-01	-7.886422E-04	3.836200E+02
-2.201219E-01	-7.886499E-04	3.840600E+02
-2.201219E-01	-7.885578E-04	3.845000E+02
-2.201219E-01	-7.885271E-04	3.849400E+02
-2.201219E-01	-7.885194E-04	3.853900E+02
-2.201219E-01	-7.885040E-04	3.858300E+02
-2.201219E-01	-7.885732E-04	3.862800E+02
-2.201142E-01	-7.885117E-04	3.867200E+02
-2.201066E-01	-7.885424E-04	3.871700E+02
-2.201219E-01	-7.886577E-04	3.876100E+02
-2.201219E-01	-7.885885E-04	3.880500E+02
-2.201219E-01	-7.885885E-04	3.885000E+02
-2.201219E-01	-7.884118E-04	3.889300E+02
-2.201142E-01	-7.884656E-04	3.898100E+02
-2.201142E-01	-7.884963E-04	3.902600E+02
-2.201219E-01	-7.884426E-04	3.907000E+02
-2.201219E-01	-7.885040E-04	3.911500E+02
-2.201066E-01	-7.885040E-04	3.915800E+02
-2.201066E-01	-7.885040E-04	3.920300E+02
-2.201066E-01	-7.884809E-04	3.924800E+02
-2.201142E-01	-7.885654E-04	3.929100E+02
-2.201219E-01	-7.885270E-04	3.933600E+02
-2.201219E-01	-7.885807E-04	3.938000E+02
-2.201219E-01	-7.886268E-04	3.942500E+02
-2.201296E-01	-7.886422E-04	3.946800E+02
-2.201219E-01	-7.886806E-04	3.951300E+02
-2.201219E-01	-7.886499E-04	3.955700E+02
-2.201219E-01	-7.887037E-04	3.960200E+02
-2.201219E-01	-7.886959E-04	3.964700E+02
-2.201296E-01	-7.886806E-04	3.969000E+02
-2.201219E-01	-7.887037E-04	3.973500E+02
-2.201296E-01	-7.886959E-04	3.977900E+02
-2.201219E-01	-7.886729E-04	3.982400E+02
-2.201219E-01	-7.886345E-04	3.986800E+02
-2.201219E-01	-7.885961E-04	3.991300E+02
-2.201142E-01	-7.886192E-04	4.000000E+02
-2.200989E-01	-7.885731E-04	4.004500E+02
-2.200989E-01	-7.885346E-04	4.008900E+02
-2.200989E-01	-7.885040E-04	4.013400E+02
-2.200989E-01	-7.884655E-04	4.017800E+02
-2.200989E-01	-7.884886E-04	4.022300E+02
-2.201066E-01	-7.885577E-04	4.026700E+02
-2.201142E-01	-7.885654E-04	4.031200E+02
-2.201142E-01	-7.885654E-04	4.035500E+02
-2.201142E-01	-7.886115E-04	4.039900E+02
-2.201142E-01	-7.886038E-04	4.044400E+02
-2.201142E-01	-7.886806E-04	4.048800E+02
-2.201066E-01	-7.887650E-04	4.053300E+02
-2.201066E-01	-7.887650E-04	4.057700E+02
-2.201142E-01	-7.887958E-04	4.062200E+02
-2.201142E-01	-7.888111E-04	4.066600E+02
-2.201142E-01	-7.888495E-04	4.071100E+02
-2.201142E-01	-7.888956E-04	4.075400E+02
-2.201142E-01	-7.889110E-04	4.079800E+02
-2.201142E-01	-7.889264E-04	4.084300E+02
-2.201142E-01	-7.888803E-04	4.088700E+02
-2.201296E-01	-7.888880E-04	4.093200E+02
-2.201219E-01	-7.888265E-04	4.102100E+02
-2.201142E-01	-7.888265E-04	4.106500E+02
-2.201219E-01	-7.887804E-04	4.111000E+02
-2.201219E-01	-7.887804E-04	4.115400E+02
-2.201296E-01	-7.886806E-04	4.119800E+02
-2.201219E-01	-7.886883E-04	4.124300E+02
-2.201219E-01	-7.886883E-04	4.128700E+02
-2.201219E-01	-7.887190E-04	4.133200E+02
-2.201219E-01	-7.887113E-04	4.137500E+02
-2.201219E-01	-7.887267E-04	4.142000E+02
-2.201219E-01	-7.887498E-04	4.146400E+02
-2.201219E-01	-7.887190E-04	4.150800E+02
-2.201219E-01	-7.887573E-04	4.155300E+02
-2.201142E-01	-7.888111E-04	4.159700E+02
-2.201142E-01	-7.888111E-04	4.164200E+02
-2.201066E-01	-7.888572E-04	4.168600E+02
-2.201066E-01	-7.889033E-04	4.173100E+02
-2.201066E-01	-7.889033E-04	4.177400E+02
-2.201066E-01	-7.889264E-04	4.181900E+02
-2.201066E-01	-7.888956E-04	4.186300E+02
-2.200912E-01	-7.890185E-04	4.190700E+02
-2.200989E-01	-7.890876E-04	4.199600E+02
-2.200989E-01	-7.891568E-04	4.204100E+02
-2.200989E-01	-7.891798E-04	4.208400E+02
-2.200912E-01	-7.891798E-04	4.213000E+02
-2.200989E-01	-7.892258E-04	4.217300E+02
-2.201066E-01	-7.891951E-04	4.221900E+02
-2.201066E-01	-7.891337E-04	4.226300E+02
-2.201142E-01	-7.891490E-04	4.230600E+02
-2.201142E-01	-7.891183E-04	4.235100E+02
-2.201142E-01	-7.891490E-04	4.239500E+02
-2.201219E-01	-7.891414E-04	4.244000E+02
-2.201142E-01	-7.891183E-04	4.248400E+02
-2.201142E-01	-7.890799E-04	4.252900E+02
-2.201219E-01	-7.889724E-04	4.257300E+02
-2.201142E-01	-7.889877E-04	4.261800E+02
-2.201142E-01	-7.890185E-04	4.266100E+02
-2.201142E-01	-7.890492E-04	4.270500E+02
-2.201142E-01	-7.889571E-04	4.275000E+02
-2.201142E-01	-7.889647E-04	4.279400E+02
-2.200989E-01	-7.889340E-04	4.283900E+02
-2.200989E-01	-7.888879E-04	4.288300E+02
-2.200989E-01	-7.886729E-04	4.292800E+02
-2.201066E-01	-7.885577E-04	4.301600E+02
-2.201142E-01	-7.885040E-04	4.306000E+02
-2.201142E-01	-7.885731E-04	4.310400E+02
-2.201142E-01	-7.884732E-04	4.314900E+02
-2.201066E-01	-7.884348E-04	4.319300E+02
-2.201142E-01	-7.883734E-04	4.323800E+02
-2.201142E-01	-7.882812E-04	4.328100E+02
-2.201142E-01	-7.883350E-04	4.332600E+02
-2.200989E-01	-7.883427E-04	4.337000E+02
-2.200989E-01	-7.884426E-04	4.341500E+02
-2.201142E-01	-7.884656E-04	4.345900E+02
-2.201066E-01	-7.884502E-04	4.350300E+02
-2.201142E-01	-7.884579E-04	4.354800E+02
-2.201142E-01	-7.883888E-04	4.359100E+02
-2.201142E-01	-7.884272E-04	4.363600E+02
-2.201219E-01	-7.883734E-04	4.368000E+02
-2.201219E-01	-7.884732E-04	4.372500E+02
-2.201142E-01	-7.884426E-04	4.376900E+02
-2.200989E-01	-7.884579E-04	4.381400E+02
-2.200989E-01	-7.885577E-04	4.385800E+02
-2.201066E-01	-7.885346E-04	4.390100E+02
-2.201142E-01	-7.884195E-04	4.399000E+02
-2.201142E-01	-7.884271E-04	4.403500E+02
-2.201142E-01	-7.884349E-04	4.407900E+02
-2.201142E-01	-7.884579E-04	4.412400E+02
-2.201219E-01	-7.884886E-04	4.416800E+02
-2.201066E-01	-7.884579E-04	4.421300E+02
-2.200989E-01	-7.883580E-04	4.425700E+02
-2.200989E-01	-7.883427E-04	4.430100E+02
-2.201066E-01	-7.883043E-04	4.434600E+02
-2.201142E-01	-7.883350E-04	4.438900E+02
-2.201142E-01	-7.883580E-04	4.443400E+02
-2.201066E-01	-7.883734E-04	4.447800E+02
-2.201142E-01	-7.883811E-04	4.452300E+02
-2.201066E-01	-7.882352E-04	4.456700E+02
-2.201066E-01	-7.882275E-04	4.461200E+02
-2.201142E-01	-7.882275E-04	4.465600E+02
-2.201066E-01	-7.881891E-04	4.470000E+02
-2.200912E-01	-7.882045E-04	4.474500E+02
-2.200989E-01	-7.881353E-04	4.478900E+02
-2.201142E-01	-7.881430E-04	4.483400E+02
-2.201142E-01	-7.881353E-04	4.487800E+02
-2.201142E-01	-7.880892E-04	4.492300E+02
-2.201142E-01	-7.880816E-04	4.501100E+02
-2.201142E-01	-7.881277E-04	4.505500E+02
-2.201142E-01	-7.881353E-04	4.509900E+02
-2.201066E-01	-7.881200E-04	4.514400E+02
-2.200989E-01	-7.880355E-04	4.518800E+02
-2.201066E-01	-7.880201E-04	4.523300E+02
-2.201142E-01	-7.880585E-04	4.527700E+02
-2.201066E-01	-7.880201E-04	4.532100E+02
-2.201066E-01	-7.881277E-04	4.536500E+02
-2.201142E-01	-7.881814E-04	4.541000E+02
-2.201142E-01	-7.882966E-04	4.545400E+02
-2.201142E-01	-7.881507E-04	4.549800E+02
-2.200912E-01	-7.882352E-04	4.554300E+02
-2.200989E-01	-7.882198E-04	4.558700E+02
-2.201066E-01	-7.883043E-04	4.563100E+02
-2.201142E-01	-7.882428E-04	4.567500E+02
-2.201142E-01	-7.882659E-04	4.572000E+02
-2.201142E-01	-7.883811E-04	4.576400E+02
-2.201142E-01	-7.884041E-04	4.581100E+02
-2.201142E-01	-7.883119E-04	4.585600E+02
-2.201066E-01	-7.884271E-04	4.589900E+02
-2.200989E-01	-7.883427E-04	4.598800E+02
-2.201142E-01	-7.882889E-04	4.603300E+02
-2.201142E-01	-7.882275E-04	4.607700E+02
-2.201142E-01	-7.882889E-04	4.612100E+02
-2.201142E-01	-7.882812E-04	4.616500E+02
-2.201142E-01	-7.882812E-04	4.621000E+02
-2.201142E-01	-7.881891E-04	4.625400E+02
-2.201142E-01	-7.882659E-04	4.629800E+02
-2.200989E-01	-7.882352E-04	4.634300E+02
-2.200989E-01	-7.881814E-04	4.638600E+02
-2.201066E-01	-7.881967E-04	4.643100E+02
-2.201142E-01	-7.881661E-04	4.647500E+02
-2.201066E-01	-7.881507E-04	4.652000E+02
-2.201066E-01	-7.880355E-04	4.656400E+02
-2.201142E-01	-7.881277E-04	4.660800E+02
-2.201142E-01	-7.881353E-04	4.665300E+02
-2.201142E-01	-7.881507E-04	4.669700E+02
-2.201142E-01	-7.881814E-04	4.674100E+02
-2.201066E-01	-7.881661E-04	4.678500E+02
-2.200912E-01	-7.881430E-04	4.683000E+02
-2.200989E-01	-7.880431E-04	4.687400E+02
-2.201066E-01	-7.880355E-04	4.691900E+02
-2.201142E-01	-7.880662E-04	4.700600E+02
-2.201142E-01	-7.879741E-04	4.705100E+02
-2.201142E-01	-7.880431E-04	4.709500E+02
-2.201142E-01	-7.880585E-04	4.714000E+02
-2.201066E-01	-7.880662E-04	4.718400E+02
-2.200989E-01	-7.880816E-04	4.722900E+02
-2.201066E-01	-7.880431E-04	4.727300E+02
-2.201219E-01	-7.880969E-04	4.731800E+02
-2.201142E-01	-7.881661E-04	4.736200E+02
-2.201142E-01	-7.881200E-04	4.740600E+02
-2.201142E-01	-7.881891E-04	4.745100E+02
-2.201142E-01	-7.880201E-04	4.749400E+02
-2.201066E-01	-7.879972E-04	4.753900E+02
-2.200989E-01	-7.880278E-04	4.758300E+02
-2.201066E-01	-7.880048E-04	4.762800E+02
-2.201142E-01	-7.880816E-04	4.767200E+02
-2.201142E-01	-7.880892E-04	4.771700E+02
-2.201142E-01	-7.880431E-04	4.776100E+02
-2.201219E-01	-7.880969E-04	4.780400E+02
-2.201142E-01	-7.880969E-04	4.784900E+02
-2.201142E-01	-7.881814E-04	4.789300E+02
-2.201066E-01	-7.881738E-04	4.798200E+02
-2.201142E-01	-7.881507E-04	4.802700E+02
-2.201142E-01	-7.882122E-04	4.807000E+02
-2.201219E-01	-7.882045E-04	4.811600E+02
-2.201142E-01	-7.882736E-04	4.815900E+02
-2.201219E-01	-7.881968E-04	4.820300E+02
-2.201142E-01	-7.882045E-04	4.824900E+02
-2.201142E-01	-7.882890E-04	4.829300E+02
-2.200912E-01	-7.881891E-04	4.833800E+02
-2.200989E-01	-7.881431E-04	4.838100E+02
-2.201142E-01	-7.881353E-04	4.842600E+02
-2.201142E-01	-7.880433E-04	4.847000E+02
-2.201142E-01	-7.880509E-04	4.851500E+02
-2.201142E-01	-7.879511E-04	4.855900E+02
-2.201142E-01	-7.879741E-04	4.860200E+02
-2.201142E-01	-7.879895E-04	4.864700E+02
-2.201142E-01	-7.879664E-04	4.869100E+02
-2.201142E-01	-7.878667E-04	4.873600E+02
-2.200989E-01	-7.878667E-04	4.877900E+02
-2.200989E-01	-7.878742E-04	4.882500E+02
-2.200989E-01	-7.877668E-04	4.886900E+02
-2.201066E-01	-7.875517E-04	4.891400E+02
-2.201066E-01	-7.875824E-04	4.900100E+02
-2.201142E-01	-7.875517E-04	4.904600E+02
-2.201142E-01	-7.875900E-04	4.909000E+02
-2.201142E-01	-7.875900E-04	4.913500E+02
-2.201142E-01	-7.876361E-04	4.917900E+02
-2.201142E-01	-7.875440E-04	4.922400E+02
-2.201142E-01	-7.875900E-04	4.926800E+02
-2.201066E-01	-7.876285E-04	4.931300E+02
-2.201066E-01	-7.876822E-04	4.935700E+02
-2.200989E-01	-7.876746E-04	4.940100E+02
-2.201066E-01	-7.877052E-04	4.944600E+02
-2.201142E-01	-7.876669E-04	4.949000E+02
-2.201142E-01	-7.876669E-04	4.953500E+02
-2.201066E-01	-7.877283E-04	4.957900E+02
-2.201066E-01	-7.876976E-04	4.962400E+02
-2.201142E-01	-7.876822E-04	4.966700E+02
-2.201142E-01	-7.877129E-04	4.971200E+02
-2.201142E-01	-7.876822E-04	4.975600E+02
-2.201142E-01	-7.877052E-04	4.980000E+02
-2.201142E-01	-7.877360E-04	4.984500E+02
-2.201142E-01	-7.878128E-04	4.988900E+02
-2.200989E-01	-7.877974E-04	4.997700E+02
-2.200912E-01	-7.877437E-04	5.002200E+02
-2.200989E-01	-7.877590E-04	5.006500E+02
-2.201066E-01	-7.877360E-04	5.011000E+02
-2.201066E-01	-7.876822E-04	5.015400E+02
-2.201142E-01	-7.877513E-04	5.019900E+02
-2.201142E-01	-7.877283E-04	5.024400E+02
-2.201142E-01	-7.876361E-04	5.028800E+02
-2.201066E-01	-7.876361E-04	5.033200E+02
-2.201142E-01	-7.876131E-04	5.037600E+02
-2.201142E-01	-7.876669E-04	5.042100E+02
-2.201219E-01	-7.876285E-04	5.046500E+02
-2.201066E-01	-7.876899E-04	5.050900E+02
-2.201142E-01	-7.876899E-04	5.055400E+02
-2.201066E-01	-7.877437E-04	5.059700E+02
-2.200989E-01	-7.876899E-04	5.064200E+02
-2.200989E-01	-7.876745E-04	5.068600E+02
-2.200989E-01	-7.876899E-04	5.073100E+02
-2.201142E-01	-7.875747E-04	5.077500E+02
-2.201066E-01	-7.875363E-04	5.082000E+02
-2.201066E-01	-7.876208E-04	5.086400E+02
-2.201142E-01	-7.877437E-04	5.090800E+02
-2.201142E-01	-7.876822E-04	5.099700E+02
-2.201142E-01	-7.877360E-04	5.104100E+02
-2.201142E-01	-7.877130E-04	5.108500E+02
-2.201142E-01	-7.877360E-04	5.113000E+02
-2.201066E-01	-7.878281E-04	5.117400E+02
-2.201142E-01	-7.878896E-04	5.121900E+02
-2.201066E-01	-7.878052E-04	5.126300E+02
-2.201066E-01	-7.878742E-04	5.130700E+02
-2.200989E-01	-7.878667E-04	5.135100E+02
-2.200989E-01	-7.878819E-04	5.139500E+02
-2.200989E-01	-7.878742E-04	5.144000E+02
-2.200989E-01	-7.879587E-04	5.148400E+02
-2.201142E-01	-7.879357E-04	5.152900E+02
-2.201142E-01	-7.877975E-04	5.157300E+02
-2.201142E-01	-7.877437E-04	5.161800E+02
-2.201142E-01	-7.876286E-04	5.166200E+02
-2.201142E-01	-7.876131E-04	5.170500E+02
-2.201142E-01	-7.876131E-04	5.175100E+02
-2.201142E-01	-7.876055E-04	5.179500E+02
-2.201066E-01	-7.875671E-04	5.184000E+02
-2.201142E-01	-7.876669E-04	5.188400E+02
-2.201066E-01	-7.875056E-04	5.192900E+02
-2.200989E-01	-7.874211E-04	5.201700E+02
-2.200989E-01	-7.874441E-04	5.206100E+02
-2.201066E-01	-7.874288E-04	5.210500E+02
-2.201142E-01	-7.874595E-04	5.215000E+02
-2.201142E-01	-7.874211E-04	5.219400E+02
-2.201142E-01	-7.874980E-04	5.223900E+02
-2.201142E-01	-7.874825E-04	5.228300E+02
-2.201142E-01	-7.874519E-04	5.232700E+02
-2.201142E-01	-7.874902E-04	5.237100E+02
-2.201142E-01	-7.875056E-04	5.241600E+02
-2.201142E-01	-7.875056E-04	5.246000E+02
-2.201142E-01	-7.873904E-04	5.250400E+02
-2.200989E-01	-7.873750E-04	5.254900E+02
-2.200989E-01	-7.873443E-04	5.259200E+02
-2.200989E-01	-7.873673E-04	5.263700E+02
-2.200989E-01	-7.873827E-04	5.268100E+02
-2.201066E-01	-7.874519E-04	5.272600E+02
-2.201066E-01	-7.875133E-04	5.277000E+02
-2.201142E-01	-7.874749E-04	5.281500E+02
-2.201142E-01	-7.874825E-04	5.285900E+02
-2.201142E-01	-7.876746E-04	5.290300E+02
-2.201142E-01	-7.876361E-04	5.299200E+02
-2.201142E-01	-7.876438E-04	5.303700E+02
-2.201066E-01	-7.875825E-04	5.308100E+02
-2.201142E-01	-7.876286E-04	5.312600E+02
-2.200989E-01	-7.876669E-04	5.317000E+02
-2.200989E-01	-7.877283E-04	5.321500E+02
-2.200989E-01	-7.876746E-04	5.325900E+02
-2.200989E-01	-7.876899E-04	5.330300E+02
-2.201142E-01	-7.876822E-04	5.334700E+02
-2.201142E-01	-7.876208E-04	5.339100E+02
-2.201066E-01	-7.876438E-04	5.343600E+02
-2.201142E-01	-7.877668E-04	5.348000E+02
-2.201219E-01	-7.877360E-04	5.352500E+02
-2.201142E-01	-7.877207E-04	5.356900E+02
-2.201142E-01	-7.877130E-04	5.361400E+02
-2.201066E-01	-7.876361E-04	5.365800E+02
-2.201142E-01	-7.876746E-04	5.370200E+02
-2.200989E-01	-7.877514E-04	5.374700E+02
-2.200989E-01	-7.878436E-04	5.379000E+02
-2.200989E-01	-7.877514E-04	5.383800E+02
-2.201142E-01	-7.878436E-04	5.388200E+02
-2.201219E-01	-7.877668E-04	5.392700E+02
-2.201219E-01	-7.877514E-04	5.401600E+02
-2.201219E-01	-7.875671E-04	5.406000E+02
-2.201142E-01	-7.875902E-04	5.410400E+02
-2.201219E-01	-7.875747E-04	5.414900E+02
-2.201219E-01	-7.876286E-04	5.419200E+02
-2.201066E-01	-7.875902E-04	5.423700E+02
-2.201066E-01	-7.876208E-04	5.428100E+02
-2.201142E-01	-7.876055E-04	5.432600E+02
-2.201142E-01	-7.875133E-04	5.437000E+02
-2.201219E-01	-7.874980E-04	5.441500E+02
-2.201219E-01	-7.875977E-04	5.445900E+02
-2.201219E-01	-7.875517E-04	5.450300E+02
-2.201219E-01	-7.876055E-04	5.454800E+02
-2.201219E-01	-7.875747E-04	5.459200E+02
-2.201219E-01	-7.875517E-04	5.463700E+02
-2.201219E-01	-7.875747E-04	5.468000E+02
-2.201219E-01	-7.875594E-04	5.472500E+02
-2.201066E-01	-7.875902E-04	5.476900E+02
-2.201066E-01	-7.876669E-04	5.481400E+02
-2.200989E-01	-7.876746E-04	5.485800E+02
-2.200989E-01	-7.876668E-04	5.490200E+02
-2.201142E-01	-7.876668E-04	5.499100E+02
-2.201142E-01	-7.877744E-04	5.503600E+02
-2.201142E-01	-7.876668E-04	5.508000E+02
-2.201142E-01	-7.876361E-04	5.512500E+02
-2.201219E-01	-7.876438E-04	5.516900E+02
-2.201219E-01	-7.876668E-04	5.521400E+02
-2.201219E-01	-7.877129E-04	5.525800E+02
-2.201142E-01	-7.877283E-04	5.530100E+02
-2.201142E-01	-7.877129E-04	5.534600E+02
-2.201219E-01	-7.876284E-04	5.539000E+02
-2.201219E-01	-7.876515E-04	5.543600E+02
-2.201219E-01	-7.876668E-04	5.548000E+02
-2.201219E-01	-7.876438E-04	5.552500E+02
-2.200989E-01	-7.876054E-04	5.556900E+02
-2.200989E-01	-7.875823E-04	5.561400E+02
-2.201066E-01	-7.875440E-04	5.565800E+02
-2.201066E-01	-7.874979E-04	5.570200E+02
-2.201219E-01	-7.875363E-04	5.574700E+02
-2.201142E-01	-7.874441E-04	5.579100E+02
-2.201142E-01	-7.874057E-04	5.583600E+02
-2.201219E-01	-7.874902E-04	5.588000E+02
-2.201066E-01	-7.874519E-04	5.592500E+02
-2.201142E-01	-7.873827E-04	5.601400E+02
-2.201142E-01	-7.872753E-04	5.605700E+02
-2.201142E-01	-7.872983E-04	5.610100E+02
-2.201142E-01	-7.872676E-04	5.614600E+02
-2.201066E-01	-7.872522E-04	5.619000E+02
-2.200989E-01	-7.872599E-04	5.623500E+02
-2.200912E-01	-7.871831E-04	5.627900E+02
-2.200989E-01	-7.871523E-04	5.632400E+02
-2.200989E-01	-7.871754E-04	5.636800E+02
-2.201066E-01	-7.871293E-04	5.641200E+02
-2.201066E-01	-7.871984E-04	5.645600E+02
-2.201142E-01	-7.872445E-04	5.650000E+02
-2.201142E-01	-7.872368E-04	5.654500E+02
-2.201066E-01	-7.871831E-04	5.658900E+02
-2.201142E-01	-7.871523E-04	5.663400E+02
-2.201142E-01	-7.871600E-04	5.667800E+02
-2.201142E-01	-7.871216E-04	5.672300E+02
-2.201142E-01	-7.871523E-04	5.676600E+02
-2.201066E-01	-7.871754E-04	5.681100E+02
-2.201142E-01	-7.871600E-04	5.685500E+02
-2.201066E-01	-7.871600E-04	5.689900E+02
-2.200989E-01	-7.871600E-04	5.698800E+02
-2.201066E-01	-7.871293E-04	5.703300E+02
-2.201066E-01	-7.870602E-04	5.707600E+02
-2.201142E-01	-7.870754E-04	5.712200E+02
-2.201142E-01	-7.870909E-04	5.716600E+02
-2.201219E-01	-7.870909E-04	5.721100E+02
-2.201219E-01	-7.871139E-04	5.725500E+02
-2.201142E-01	-7.870602E-04	5.729900E+02
-2.201142E-01	-7.870218E-04	5.734400E+02
-2.201219E-01	-7.870295E-04	5.738800E+02
-2.201219E-01	-7.870679E-04	5.743200E+02
-2.201219E-01	-7.870218E-04	5.747600E+02
-2.201142E-01	-7.870218E-04	5.752100E+02
-2.201219E-01	-7.870754E-04	5.756500E+02
-2.201219E-01	-7.871139E-04	5.761000E+02
-2.201142E-01	-7.871523E-04	5.765400E+02
-2.201142E-01	-7.871062E-04	5.769800E+02
-2.201142E-01	-7.871062E-04	5.774300E+02
-2.200989E-01	-7.871293E-04	5.778600E+02
-2.200989E-01	-7.871676E-04	5.783200E+02
-2.201066E-01	-7.871753E-04	5.787600E+02
-2.201066E-01	-7.869833E-04	5.792100E+02
-2.201142E-01	-7.868528E-04	5.800800E+02
-2.201142E-01	-7.868682E-04	5.805300E+02
-2.201219E-01	-7.868452E-04	5.809600E+02
-2.201219E-01	-7.868452E-04	5.814100E+02
-2.201219E-01	-7.869219E-04	5.818500E+02
-2.201219E-01	-7.869833E-04	5.823100E+02
-2.201219E-01	-7.868452E-04	5.827500E+02
-2.201219E-01	-7.868452E-04	5.832000E+02
-2.201066E-01	-7.868528E-04	5.836300E+02
-2.201066E-01	-7.868605E-04	5.840700E+02
-2.201066E-01	-7.868758E-04	5.845200E+02
-2.201142E-01	-7.869526E-04	5.849600E+02
-2.201219E-01	-7.869757E-04	5.854100E+02
-2.201142E-01	-7.868989E-04	5.858500E+02
-2.201219E-01	-7.869066E-04	5.863000E+02
-2.201219E-01	-7.867991E-04	5.867300E+02
-2.201219E-01	-7.868452E-04	5.871800E+02
-2.201219E-01	-7.867376E-04	5.876200E+02
-2.201142E-01	-7.868605E-04	5.880600E+02
-2.201066E-01	-7.868835E-04	5.885100E+02
-2.201066E-01	-7.867530E-04	5.889500E+02
-2.201219E-01	-7.868144E-04	5.898300E+02
-2.201219E-01	-7.868605E-04	5.902800E+02
-2.201219E-01	-7.868989E-04	5.907200E+02
-2.201219E-01	-7.869142E-04	5.911700E+02
-2.201142E-01	-7.868528E-04	5.916100E+02
-2.201066E-01	-7.868989E-04	5.920500E+02
-2.201066E-01	-7.868681E-04	5.925000E+02
-2.201142E-01	-7.867760E-04	5.929400E+02
-2.201219E-01	-7.868221E-04	5.933900E+02
-2.201219E-01	-7.867453E-04	5.938200E+02
-2.201219E-01	-7.868605E-04	5.942700E+02
-2.201219E-01	-7.868375E-04	5.947100E+02
-2.201219E-01	-7.868375E-04	5.951600E+02
-2.201219E-01	-7.869219E-04	5.956000E+02
-2.201142E-01	-7.869372E-04	5.960300E+02
-2.200989E-01	-7.868375E-04	5.964800E+02
-2.201066E-01	-7.869219E-04	5.969200E+02
-2.201142E-01	-7.869296E-04	5.973700E+02
-2.201219E-01	-7.868681E-04	5.978100E+02
-2.201219E-01	-7.868989E-04	5.982600E+02
-2.201219E-01	-7.869526E-04	5.987000E+02
-2.201219E-01	-7.869372E-04	5.991500E+02
-2.201066E-01	-7.867453E-04	6.000300E+02
