CORRW ASCII
  CorrWare for Windows: Version 3.5f
  Potentiostatic	[-0.1 Ref,1 Hour][default]	IV_-100mV_1.cor
  Date: 11-05-2019    Time: 01:01:46
   
   
  Open Circuit Potential (V): 0.0021
  Begin Information:          Cell Information
    Surface Area:             1
    Density:                  0
    Weight:                   0
    Polarity:                 0
    PolarityI:                0
    Corrosion Unit Type:      0
    Reference Type:           0
    Reference Potential:      0
    User-Defined Potential:   0
    Stern-Geary:              26
  End Information:            Cell Information
  Begin Pstat:                1287
    Pstat Title:              Instrument #1
    Booster Type:             0
    Booster Name:             None
    Current Range:            0
    Current Limit:            0
    Current LimitType:        0
    Sweep Type:               0
    Use Error Beep:           1
    Auxilary Type:            0
    iR Comp. Type:            0
    iR Ohms:                  0
    iR Time:                  27
    iR Ratio:                 255
    LP Filter Type:           2
    Drift Correction:         1
    Null Correction:          0
    Pstat Bandwidth Type:     2
    Gstat Bandwidth Type:     2
    External Input:           0
    SafetyMinV:               0
    SafetyMaxV:               10
    SafetyMinI:               0
    SafetyMaxI:               4
    SafetyMinQ:               0
    SafetyMaxQ:               1000
    SafetyMinT:               0
    SafetyMaxT:               50
    SafetyChT:                0
    SafetyMinVUse:            0
    SafetyMaxVUse:            0
    SafetyMinIUse:            0
    SafetyMaxIUse:            0
    SafetyMinQUse:            0
    SafetyMaxQUse:            0
    SafetyMinTUse:            0
    SafetyMaxTUse:            0
  End Pstat:                  1287
  Begin Experiment:           Potentiostatic	[-0.1 Ref,1 Hour][default]	IV_-100mV_1.cor
    Data File:                Z:\191101_Amezawa\fr_XAS\TPB2\100% O2\Electrochem\IV_-100mV_1.cor
    Data Append:              0
    Comment Lines:            0
    Potential:                -0.1
    Potential Type:           1
    Total Time:               1
    Time Units:               2
    Time Marker:              -1
    Measure Rate Type:        1
    Measure Rate #1:          2000
    Measure Rate #2:          600
    Measure Rate #3:          0.1
    Measure Rate #4:          2
    Use Threshold:            0
    Threshold I_Min:          -15
    Threshold I_Max:          15
    Threshold Delta:          5
    Threshold Time:           60
    Copy AuxV:                0
    Axes Type:                1
    Use Custom Pstat:         0
  End Experiment:             Potentiostatic	[-0.1 Ref,1 Hour][default]	IV_-100mV_1.cor
  Data Points:                215
  E(Volts)	I(A/cm2)	T(Seconds)
End Comments
-1.001275E-01	-1.796083E-04	0.000000E+00
-1.001137E-01	-1.713448E-04	8.900000E-01
-1.001145E-01	-1.699471E-04	1.330000E+00
-1.001168E-01	-1.689717E-04	1.770000E+00
-1.001152E-01	-1.682498E-04	2.220000E+00
-1.001137E-01	-1.676354E-04	2.650000E+00
-1.001137E-01	-1.672514E-04	3.100000E+00
-1.001145E-01	-1.669135E-04	3.540000E+00
-1.001145E-01	-1.666370E-04	4.010000E+00
-1.001145E-01	-1.663759E-04	4.450000E+00
-1.001145E-01	-1.662147E-04	4.900000E+00
-1.001168E-01	-1.660303E-04	5.340000E+00
-1.001152E-01	-1.658307E-04	5.780000E+00
-1.001145E-01	-1.656848E-04	6.230000E+00
-1.001152E-01	-1.656156E-04	6.670000E+00
-1.001145E-01	-1.654928E-04	7.120000E+00
-1.001152E-01	-1.653776E-04	7.550000E+00
-1.001152E-01	-1.653084E-04	8.000000E+00
-1.001152E-01	-1.652009E-04	8.440000E+00
-1.001160E-01	-1.651164E-04	8.890000E+00
-1.001145E-01	-1.650396E-04	9.330000E+00
-1.001145E-01	-1.649936E-04	9.770000E+00
-1.001137E-01	-1.648784E-04	1.065000E+01
-1.001129E-01	-1.648323E-04	1.110000E+01
-1.001145E-01	-1.647785E-04	1.153000E+01
-1.001160E-01	-1.647094E-04	1.198000E+01
-1.001122E-01	-1.646480E-04	1.242000E+01
-1.001145E-01	-1.646172E-04	1.287000E+01
-1.001129E-01	-1.645635E-04	1.331000E+01
-1.001160E-01	-1.645405E-04	1.375000E+01
-1.001145E-01	-1.644790E-04	1.420000E+01
-1.001137E-01	-1.644560E-04	1.463000E+01
-1.001122E-01	-1.644176E-04	1.509000E+01
-1.001122E-01	-1.644253E-04	1.553000E+01
-1.001145E-01	-1.644253E-04	1.598000E+01
-1.001122E-01	-1.643792E-04	1.642000E+01
-1.001145E-01	-1.643715E-04	1.687000E+01
-1.001129E-01	-1.642947E-04	1.730000E+01
-1.001137E-01	-1.643638E-04	1.774000E+01
-1.001129E-01	-1.643408E-04	1.819000E+01
-1.001137E-01	-1.643101E-04	1.863000E+01
-1.001145E-01	-1.643254E-04	1.908000E+01
-1.001137E-01	-1.642563E-04	1.952000E+01
-1.001152E-01	-1.642486E-04	1.997000E+01
-1.001137E-01	-1.642025E-04	2.085000E+01
-1.001137E-01	-1.641795E-04	2.129000E+01
-1.001160E-01	-1.642179E-04	2.173000E+01
-1.001152E-01	-1.641795E-04	2.218000E+01
-1.001137E-01	-1.641411E-04	2.262000E+01
-1.001152E-01	-1.641488E-04	2.307000E+01
-1.001137E-01	-1.641411E-04	2.351000E+01
-1.001145E-01	-1.641181E-04	2.395000E+01
-1.001145E-01	-1.641104E-04	2.439000E+01
-1.001175E-01	-1.641104E-04	2.483000E+01
-1.001145E-01	-1.641027E-04	2.528000E+01
-1.001137E-01	-1.640797E-04	2.572000E+01
-1.001137E-01	-1.640797E-04	2.617000E+01
-1.001145E-01	-1.640797E-04	2.661000E+01
-1.001145E-01	-1.640413E-04	2.705000E+01
-1.001145E-01	-1.640490E-04	2.749000E+01
-1.001168E-01	-1.640566E-04	2.794000E+01
-1.001145E-01	-1.640643E-04	2.838000E+01
-1.001137E-01	-1.640259E-04	2.882000E+01
-1.001137E-01	-1.640182E-04	2.927000E+01
-1.001145E-01	-1.640336E-04	2.971000E+01
-1.001137E-01	-1.640336E-04	3.059000E+01
-1.001137E-01	-1.640182E-04	3.104000E+01
-1.001129E-01	-1.640029E-04	3.148000E+01
-1.001145E-01	-1.640182E-04	3.193000E+01
-1.001137E-01	-1.640029E-04	3.237000E+01
-1.001145E-01	-1.639721E-04	3.281000E+01
-1.001129E-01	-1.639645E-04	3.325000E+01
-1.001145E-01	-1.640029E-04	3.370000E+01
-1.001145E-01	-1.639952E-04	3.414000E+01
-1.001145E-01	-1.640029E-04	3.458000E+01
-1.001129E-01	-1.640182E-04	3.503000E+01
-1.001137E-01	-1.640029E-04	3.547000E+01
-1.001129E-01	-1.640105E-04	3.592000E+01
-1.001122E-01	-1.639875E-04	3.636000E+01
-1.001137E-01	-1.639645E-04	3.680000E+01
-1.001129E-01	-1.639645E-04	3.724000E+01
-1.001137E-01	-1.639952E-04	3.768000E+01
-1.001145E-01	-1.640029E-04	3.813000E+01
-1.001137E-01	-1.639721E-04	3.857000E+01
-1.001152E-01	-1.639568E-04	3.902000E+01
-1.001129E-01	-1.639338E-04	3.946000E+01
-1.001145E-01	-1.639721E-04	3.990000E+01
-1.001114E-01	-1.639568E-04	4.078000E+01
-1.001137E-01	-1.639645E-04	4.123000E+01
-1.001145E-01	-1.639184E-04	4.167000E+01
-1.001137E-01	-1.639261E-04	4.212000E+01
-1.001122E-01	-1.639338E-04	4.256000E+01
-1.001137E-01	-1.639414E-04	4.301000E+01
-1.001106E-01	-1.639030E-04	4.345000E+01
-1.001145E-01	-1.639184E-04	4.390000E+01
-1.001129E-01	-1.639338E-04	4.434000E+01
-1.001129E-01	-1.639184E-04	4.478000E+01
-1.001137E-01	-1.639107E-04	4.523000E+01
-1.001145E-01	-1.639261E-04	4.566000E+01
-1.001145E-01	-1.639184E-04	4.611000E+01
-1.001129E-01	-1.639261E-04	4.655000E+01
-1.001129E-01	-1.639338E-04	4.700000E+01
-1.001137E-01	-1.639491E-04	4.743000E+01
-1.001152E-01	-1.639338E-04	4.788000E+01
-1.001129E-01	-1.639338E-04	4.832000E+01
-1.001137E-01	-1.639184E-04	4.876000E+01
-1.001137E-01	-1.639184E-04	4.921000E+01
-1.001160E-01	-1.639338E-04	4.965000E+01
-1.001129E-01	-1.639338E-04	5.054000E+01
-1.001145E-01	-1.639338E-04	5.099000E+01
-1.001129E-01	-1.639261E-04	5.143000E+01
-1.001152E-01	-1.639261E-04	5.188000E+01
-1.001145E-01	-1.639030E-04	5.231000E+01
-1.001160E-01	-1.639184E-04	5.275000E+01
-1.001137E-01	-1.639184E-04	5.320000E+01
-1.001129E-01	-1.639261E-04	5.363000E+01
-1.001152E-01	-1.639491E-04	5.408000E+01
-1.001152E-01	-1.639338E-04	5.452000E+01
-1.001145E-01	-1.639338E-04	5.497000E+01
-1.001129E-01	-1.639568E-04	5.541000E+01
-1.001152E-01	-1.639338E-04	5.586000E+01
-1.001145E-01	-1.639645E-04	5.629000E+01
-1.001152E-01	-1.639414E-04	5.673000E+01
-1.001137E-01	-1.639184E-04	5.718000E+01
-1.001145E-01	-1.639338E-04	5.762000E+01
-1.001160E-01	-1.639414E-04	5.807000E+01
-1.001152E-01	-1.639261E-04	5.851000E+01
-1.001175E-01	-1.639261E-04	5.896000E+01
-1.001152E-01	-1.639107E-04	5.940000E+01
-1.001168E-01	-1.638570E-04	5.984000E+01
-1.001137E-01	-1.638493E-04	6.072000E+01
-1.001152E-01	-1.638570E-04	6.116000E+01
-1.001137E-01	-1.638185E-04	6.160000E+01
-1.001152E-01	-1.638416E-04	6.205000E+01
-1.001129E-01	-1.638416E-04	6.249000E+01
-1.001145E-01	-1.638416E-04	6.294000E+01
-1.001145E-01	-1.638570E-04	6.338000E+01
-1.001145E-01	-1.638570E-04	6.382000E+01
-1.001137E-01	-1.638800E-04	6.426000E+01
-1.001129E-01	-1.638570E-04	6.470000E+01
-1.001137E-01	-1.638800E-04	6.515000E+01
-1.001145E-01	-1.638800E-04	6.559000E+01
-1.001168E-01	-1.638800E-04	6.604000E+01
-1.001145E-01	-1.638800E-04	6.648000E+01
-1.001145E-01	-1.638877E-04	6.693000E+01
-1.001129E-01	-1.638877E-04	6.736000E+01
-1.001129E-01	-1.638800E-04	6.780000E+01
-1.001145E-01	-1.638954E-04	6.825000E+01
-1.001137E-01	-1.639030E-04	6.869000E+01
-1.001137E-01	-1.638877E-04	6.914000E+01
-1.001145E-01	-1.639261E-04	6.958000E+01
-1.001160E-01	-1.639338E-04	7.003000E+01
-1.001160E-01	-1.639568E-04	7.091000E+01
-1.001137E-01	-1.639184E-04	7.135000E+01
-1.001137E-01	-1.639107E-04	7.179000E+01
-1.001129E-01	-1.639184E-04	7.224000E+01
-1.001137E-01	-1.639414E-04	7.268000E+01
-1.001160E-01	-1.639568E-04	7.313000E+01
-1.001152E-01	-1.639414E-04	7.357000E+01
-1.001168E-01	-1.639414E-04	7.402000E+01
-1.001137E-01	-1.639568E-04	7.446000E+01
-1.001145E-01	-1.639645E-04	7.490000E+01
-1.001129E-01	-1.639568E-04	7.534000E+01
-1.001152E-01	-1.639721E-04	7.578000E+01
-1.001145E-01	-1.639721E-04	7.623000E+01
-1.001145E-01	-1.639721E-04	7.667000E+01
-1.001152E-01	-1.639721E-04	7.711000E+01
-1.001160E-01	-1.639798E-04	7.755000E+01
-1.001152E-01	-1.640106E-04	7.800000E+01
-1.001152E-01	-1.640029E-04	7.844000E+01
-1.001145E-01	-1.639875E-04	7.889000E+01
-1.001152E-01	-1.639875E-04	7.933000E+01
-1.001160E-01	-1.639645E-04	7.977000E+01
-1.001145E-01	-1.639798E-04	8.065000E+01
-1.001160E-01	-1.639875E-04	8.110000E+01
-1.001152E-01	-1.639875E-04	8.154000E+01
-1.001160E-01	-1.639952E-04	8.199000E+01
-1.001145E-01	-1.639952E-04	8.243000E+01
-1.001160E-01	-1.640029E-04	8.288000E+01
-1.001145E-01	-1.639952E-04	8.331000E+01
-1.001160E-01	-1.640106E-04	8.378000E+01
-1.001137E-01	-1.640106E-04	8.423000E+01
-1.001160E-01	-1.640182E-04	8.467000E+01
-1.001160E-01	-1.640029E-04	8.511000E+01
-1.001160E-01	-1.640029E-04	8.555000E+01
-1.001160E-01	-1.640182E-04	8.600000E+01
-1.001145E-01	-1.640106E-04	8.644000E+01
-1.001152E-01	-1.640029E-04	8.689000E+01
-1.001137E-01	-1.640106E-04	8.733000E+01
-1.001137E-01	-1.640106E-04	8.776000E+01
-1.001152E-01	-1.640106E-04	8.821000E+01
-1.001137E-01	-1.639875E-04	8.865000E+01
-1.001137E-01	-1.639798E-04	8.910000E+01
-1.001145E-01	-1.639875E-04	8.954000E+01
-1.001137E-01	-1.640413E-04	8.999000E+01
-1.001152E-01	-1.640720E-04	9.087000E+01
-1.001137E-01	-1.640643E-04	9.131000E+01
-1.001152E-01	-1.640720E-04	9.175000E+01
-1.001145E-01	-1.640643E-04	9.220000E+01
-1.001145E-01	-1.640797E-04	9.264000E+01
-1.001152E-01	-1.641027E-04	9.309000E+01
-1.001137E-01	-1.641027E-04	9.353000E+01
-1.001145E-01	-1.640874E-04	9.398000E+01
-1.001129E-01	-1.640950E-04	9.442000E+01
-1.001145E-01	-1.641181E-04	9.486000E+01
-1.001129E-01	-1.640950E-04	9.530000E+01
-1.001137E-01	-1.640950E-04	9.574000E+01
-1.001145E-01	-1.641027E-04	9.619000E+01
-1.001152E-01	-1.641488E-04	9.663000E+01
-1.001152E-01	-1.641488E-04	9.708000E+01
-1.001137E-01	-1.641488E-04	9.752000E+01
-1.001152E-01	-1.641641E-04	9.796000E+01
-1.001137E-01	-1.641411E-04	9.840000E+01
-1.001152E-01	-1.641488E-04	9.885000E+01
-1.001145E-01	-1.641104E-04	9.929000E+01
