CORRW ASCII
  CorrWare for Windows: Version 3.5f
  Potentiodynamic	[-0.25 OC,0.1 OC,2.5mV/S][default]	100%O2_500C_IV_SweepBefore1.z
  Date: 11-06-2019    Time: 08:09:11
   
   
  Open Circuit Potential (V): -0.0035
  Begin Information:          Cell Information
    Surface Area:             1
    Density:                  0
    Weight:                   0
    Polarity:                 0
    PolarityI:                0
    Corrosion Unit Type:      0
    Reference Type:           0
    Reference Potential:      0
    User-Defined Potential:   0
    Stern-Geary:              26
  End Information:            Cell Information
  Begin Pstat:                1287
    Pstat Title:              Instrument #1
    Booster Type:             0
    Booster Name:             None
    Current Range:            0
    Current Limit:            0
    Current LimitType:        0
    Sweep Type:               0
    Use Error Beep:           1
    Auxilary Type:            0
    iR Comp. Type:            0
    iR Ohms:                  0
    iR Time:                  27
    iR Ratio:                 255
    LP Filter Type:           2
    Drift Correction:         1
    Null Correction:          0
    Pstat Bandwidth Type:     2
    Gstat Bandwidth Type:     2
    External Input:           0
    SafetyMinV:               0
    SafetyMaxV:               10
    SafetyMinI:               0
    SafetyMaxI:               4
    SafetyMinQ:               0
    SafetyMaxQ:               1000
    SafetyMinT:               0
    SafetyMaxT:               50
    SafetyChT:                0
    SafetyMinVUse:            0
    SafetyMaxVUse:            0
    SafetyMinIUse:            0
    SafetyMaxIUse:            0
    SafetyMinQUse:            0
    SafetyMaxQUse:            0
    SafetyMinTUse:            0
    SafetyMaxTUse:            0
  End Pstat:                  1287
  Begin Experiment:           Potentiodynamic	[-0.25 OC,0.1 OC,2.5mV/S][default]	100%O2_500C_IV_SweepBefore1.z
    Data File:                \\ANALYSIS\ANALYSIS_Data\191101_Amezawa\fr_XAS\DPB2\500C_100%O2\100%O2_500C_IV_SweepBefore1.z
    Data Append:              0
    Comment Lines:            0
    Potential #1:             -0.25
    Potential #1 Type:        0
    Potential #2:             0
    Potential #2 Type:        0
    Use Potential #2:         0
    Potential #3:             0
    Potential #3 Type:        0
    Use Potential #3:         0
    Potential #4:             0.1
    Potential #4 Type:        0
    Scan Rate:                2.5
    Measure Rate Type:        2
    Measure Rate #1:          2000
    Measure Rate #2:          1
    Measure Rate #3:          1
    Measure Rate #4:          0.1
    Measure Rate #5:          1
    Use Threshold:            0
    Use Reverse:              0
    Threshold E_Min:          -10
    Threshold E_Max:          10
    Threshold I_Min:          0.001
    Threshold I_Max:          -0.001
    Axes Type:                5
    Use Custom Pstat:         0
  End Experiment:             Potentiodynamic	[-0.25 OC,0.1 OC,2.5mV/S][default]	100%O2_500C_IV_SweepBefore1.z
  Data Points:                243
  E(Volts)	I(A/cm2)	T(Seconds)
End Comments
-2.528790E-01	-1.342051E-04	0.000000E+00
-2.516200E-01	-1.382447E-04	4.400000E-01
-2.504148E-01	-1.405179E-04	8.800000E-01
-2.492095E-01	-1.409864E-04	1.320000E+00
-2.480656E-01	-1.406562E-04	1.760000E+00
-2.468911E-01	-1.393429E-04	2.210000E+00
-2.457549E-01	-1.379529E-04	2.670000E+00
-2.444806E-01	-1.361711E-04	3.150000E+00
-2.433674E-01	-1.348579E-04	3.590000E+00
-2.422236E-01	-1.330608E-04	4.040000E+00
-2.411335E-01	-1.313636E-04	4.480000E+00
-2.400203E-01	-1.291748E-04	4.920000E+00
-2.387152E-01	-1.273701E-04	5.430000E+00
-2.376405E-01	-1.261797E-04	5.870000E+00
-2.365427E-01	-1.243596E-04	6.320000E+00
-2.354526E-01	-1.225471E-04	6.760000E+00
-2.343394E-01	-1.205888E-04	7.220000E+00
-2.320978E-01	-1.177856E-04	8.110000E+00
-2.310154E-01	-1.161729E-04	8.550000E+00
-2.299406E-01	-1.145601E-04	9.000000E+00
-2.288505E-01	-1.128475E-04	9.430000E+00
-2.277758E-01	-1.116878E-04	9.910000E+00
-2.265014E-01	-1.102440E-04	1.039000E+01
-2.254343E-01	-1.087465E-04	1.083000E+01
-2.243365E-01	-1.069878E-04	1.128000E+01
-2.232771E-01	-1.054979E-04	1.172000E+01
-2.221102E-01	-1.041539E-04	1.221000E+01
-2.209127E-01	-1.028253E-04	1.268000E+01
-2.198302E-01	-1.014122E-04	1.313000E+01
-2.187631E-01	-1.002142E-04	1.357000E+01
-2.176654E-01	-9.844780E-05	1.402000E+01
-2.166059E-01	-9.734191E-05	1.445000E+01
-2.155542E-01	-9.628208E-05	1.489000E+01
-2.142799E-01	-9.473076E-05	1.541000E+01
-2.132128E-01	-9.343286E-05	1.585000E+01
-2.121380E-01	-9.195833E-05	1.629000E+01
-2.110786E-01	-9.073725E-05	1.673000E+01
-2.099885E-01	-8.976191E-05	1.718000E+01
-2.077392E-01	-8.757316E-05	1.810000E+01
-2.066875E-01	-8.601414E-05	1.854000E+01
-2.056050E-01	-8.483914E-05	1.899000E+01
-2.045456E-01	-8.384076E-05	1.943000E+01
-2.034785E-01	-8.312654E-05	1.990000E+01
-2.022272E-01	-8.159824E-05	2.038000E+01
-2.011525E-01	-8.030035E-05	2.082000E+01
-2.000624E-01	-7.906390E-05	2.127000E+01
-1.990029E-01	-7.816536E-05	2.171000E+01
-1.979282E-01	-7.728986E-05	2.218000E+01
-1.967459E-01	-7.604572E-05	2.264000E+01
-1.956635E-01	-7.489375E-05	2.309000E+01
-1.946041E-01	-7.368033E-05	2.353000E+01
-1.935370E-01	-7.298146E-05	2.397000E+01
-1.924546E-01	-7.223653E-05	2.441000E+01
-1.914029E-01	-7.100775E-05	2.485000E+01
-1.901516E-01	-6.973289E-05	2.537000E+01
-1.890921E-01	-6.858093E-05	2.581000E+01
-1.880251E-01	-6.775918E-05	2.625000E+01
-1.869580E-01	-6.702192E-05	2.669000E+01
-1.858755E-01	-6.608498E-05	2.718000E+01
-1.835802E-01	-6.378871E-05	2.809000E+01
-1.825208E-01	-6.322808E-05	2.853000E+01
-1.814537E-01	-6.234489E-05	2.897000E+01
-1.803636E-01	-6.143100E-05	2.942000E+01
-1.791430E-01	-6.039422E-05	2.993000E+01
-1.780528E-01	-5.956480E-05	3.038000E+01
-1.770011E-01	-5.854338E-05	3.082000E+01
-1.759187E-01	-5.795203E-05	3.126000E+01
-1.748746E-01	-5.690757E-05	3.170000E+01
-1.737768E-01	-5.598600E-05	3.218000E+01
-1.725639E-01	-5.513353E-05	3.265000E+01
-1.715045E-01	-5.447306E-05	3.310000E+01
-1.704374E-01	-5.361293E-05	3.353000E+01
-1.693780E-01	-5.302158E-05	3.397000E+01
-1.683033E-01	-5.187728E-05	3.442000E+01
-1.669705E-01	-5.121682E-05	3.497000E+01
-1.648473E-01	-4.972693E-05	3.585000E+01
-1.637796E-01	-4.862871E-05	3.630000E+01
-1.625576E-01	-4.823704E-05	3.680000E+01
-1.604176E-01	-4.673947E-05	3.769000E+01
-1.582798E-01	-4.497311E-05	3.858000E+01
-1.572098E-01	-4.490399E-05	3.902000E+01
-1.561582E-01	-4.393634E-05	3.948000E+01
-1.549692E-01	-4.334499E-05	3.995000E+01
-1.538984E-01	-4.229285E-05	4.040000E+01
-1.528452E-01	-4.193190E-05	4.083000E+01
-1.517675E-01	-4.120999E-05	4.128000E+01
-1.496489E-01	-3.980458E-05	4.216000E+01
-1.485958E-01	-3.963563E-05	4.260000E+01
-1.475196E-01	-3.859885E-05	4.306000E+01
-1.463475E-01	-3.805358E-05	4.353000E+01
-1.452867E-01	-3.749295E-05	4.397000E+01
-1.442182E-01	-3.701681E-05	4.442000E+01
-1.431597E-01	-3.619506E-05	4.485000E+01
-1.420843E-01	-3.594931E-05	4.533000E+01
-1.408707E-01	-3.481269E-05	4.580000E+01
-1.397930E-01	-3.452854E-05	4.625000E+01
-1.387345E-01	-3.399863E-05	4.669000E+01
-1.376583E-01	-3.329977E-05	4.713000E+01
-1.353993E-01	-3.229370E-05	4.807000E+01
-1.343469E-01	-3.213243E-05	4.851000E+01
-1.333038E-01	-3.144892E-05	4.894000E+01
-1.311683E-01	-3.015103E-05	4.983000E+01
-1.300921E-01	-2.990528E-05	5.028000E+01
-1.290321E-01	-2.914497E-05	5.075000E+01
-1.277909E-01	-2.851523E-05	5.123000E+01
-1.267370E-01	-2.859203E-05	5.167000E+01
-1.256539E-01	-2.787012E-05	5.212000E+01
-1.246107E-01	-2.761669E-05	5.255000E+01
-1.235346E-01	-2.690246E-05	5.302000E+01
-1.223402E-01	-2.633416E-05	5.349000E+01
-1.212809E-01	-2.626503E-05	5.393000E+01
-1.201955E-01	-2.576585E-05	5.438000E+01
-1.180539E-01	-2.449867E-05	5.527000E+01
-1.172081E-01	-2.442187E-05	5.588000E+01
-1.155048E-01	-2.343886E-05	5.633000E+01
-1.144470E-01	-2.277071E-05	5.677000E+01
-1.133616E-01	-2.264015E-05	5.722000E+01
-1.117435E-01	-2.164945E-05	5.822000E+01
-1.099190E-01	-2.132690E-05	5.866000E+01
-1.088420E-01	-2.105043E-05	5.910000E+01
-1.077904E-01	-2.054356E-05	5.954000E+01
-1.067311E-01	-2.051284E-05	5.998000E+01
-1.056557E-01	-1.989077E-05	6.045000E+01
-1.043193E-01	-1.935319E-05	6.123000E+01
-1.026368E-01	-1.861592E-05	6.168000E+01
-1.015537E-01	-1.834713E-05	6.213000E+01
-1.004867E-01	-1.817049E-05	6.257000E+01
-9.941211E-02	-1.783258E-05	6.302000E+01
-9.729431E-02	-1.736411E-05	6.390000E+01
-9.602471E-02	-1.913047E-05	6.444000E+01
-9.468910E-02	-1.645021E-05	6.510000E+01
-9.331894E-02	-1.592798E-05	6.555000E+01
-9.224200E-02	-1.559775E-05	6.600000E+01
-9.102383E-02	-1.553631E-05	6.651000E+01
-8.996378E-02	-1.513695E-05	6.694000E+01
-8.310991E-02	-1.123924E-05	6.788000E+01
-8.205830E-02	-1.142589E-05	6.835000E+01
-8.546950E-02	-1.376994E-05	6.894000E+01
-8.383836E-02	-1.339363E-05	6.962000E+01
-8.245438E-02	-1.309412E-05	7.006000E+01
-8.140048E-02	-1.295588E-05	7.050000E+01
-7.920054E-02	-1.269477E-05	7.121000E+01
-7.816506E-02	-1.226470E-05	7.186000E+01
-7.689085E-02	-1.211110E-05	7.276000E+01
-7.507933E-02	-1.152743E-05	7.337000E+01
-7.362550E-02	-1.187302E-05	7.389000E+01
-7.208262E-02	-1.062121E-05	7.446000E+01
-6.716234E-02	-8.196024E-06	7.499000E+01
-6.879962E-02	-1.031402E-05	7.575000E+01
-6.407046E-02	-7.792003E-06	7.633000E+01
-6.580676E-02	-9.922346E-06	7.696000E+01
-6.371737E-02	-9.108284E-06	7.805000E+01
-6.228657E-02	-8.655174E-06	7.862000E+01
-6.037832E-02	-8.532296E-06	7.935000E+01
-5.866275E-02	-8.478537E-06	7.999000E+01
-5.661787E-02	-7.971668E-06	8.065000E+01
-5.507731E-02	-7.764314E-06	8.144000E+01
-5.134756E-02	-5.857925E-06	8.193000E+01
-5.027676E-02	-5.788795E-06	8.240000E+01
-4.910772E-02	-5.582176E-06	8.288000E+01
-4.956904E-02	-6.589299E-06	8.366000E+01
-4.842149E-02	-6.128509E-06	8.434000E+01
-4.697073E-02	-6.151547E-06	8.494000E+01
-4.539562E-02	-5.990271E-06	8.554000E+01
-4.317957E-02	-5.636999E-06	8.608000E+01
-4.165896E-02	-5.491082E-06	8.674000E+01
-4.034023E-02	-5.222288E-06	8.757000E+01
-3.593884E-02	-3.686502E-06	8.858000E+01
-3.723915E-02	-4.500384E-06	8.917000E+01
-3.342726E-02	-3.261742E-06	8.969000E+01
-3.388705E-02	-3.924396E-06	9.037000E+01
-3.226359E-02	-3.847597E-06	9.102000E+01
-3.034076E-02	-3.824558E-06	9.180000E+01
-2.844787E-02	-3.463606E-06	9.254000E+01
-2.609980E-02	-3.025855E-06	9.328000E+01
-2.376247E-02	-2.183328E-06	9.386000E+01
-2.272468E-02	-2.141082E-06	9.430000E+01
-2.165081E-02	-1.969796E-06	9.474000E+01
-2.226949E-02	-2.111955E-06	9.531000E+01
-1.926666E-02	-1.544268E-06	9.580000E+01
-1.931962E-02	-1.582046E-06	9.646000E+01
-1.816208E-02	-1.336291E-06	9.700000E+01
-1.469409E-02	-1.320932E-06	9.838000E+01
-1.205740E-02	-7.085735E-07	9.888000E+01
-1.101500E-02	-1.044458E-06	9.948000E+01
-1.031495E-02	-9.292602E-07	1.001200E+02
-8.105813E-03	-4.223911E-07	1.009800E+02
-4.867326E-03	1.225121E-07	1.019200E+02
-3.789621E-03	2.093076E-07	1.023700E+02
-2.792514E-03	3.037840E-07	1.028300E+02
-1.608881E-03	3.782898E-07	1.033100E+02
-6.156120E-04	5.219247E-07	1.037500E+02
4.889586E-04	6.271547E-07	1.042000E+02
1.517537E-03	8.376143E-07	1.046400E+02
1.823040E-03	8.908606E-07	1.053600E+02
3.679855E-03	1.390050E-06	1.060900E+02
7.138641E-03	1.687260E-05	1.070500E+02
8.959379E-03	3.194811E-06	1.081900E+02
1.152699E-02	3.586483E-06	1.088500E+02
1.273595E-02	2.238631E-06	1.094100E+02
1.509708E-02	3.793839E-06	1.102300E+02
1.630911E-02	5.045652E-06	1.111400E+02
1.802085E-02	2.895358E-06	1.116500E+02
1.910163E-02	3.021326E-06	1.121000E+02
2.015630E-02	3.124252E-06	1.125400E+02
2.120253E-02	3.232554E-06	1.129900E+02
2.240536E-02	3.345465E-06	1.134900E+02
2.342933E-02	3.517520E-06	1.139300E+02
2.448785E-02	3.639648E-06	1.143800E+02
2.556248E-02	3.790964E-06	1.148200E+02
2.657571E-02	3.913092E-06	1.153000E+02
2.780462E-02	4.058263E-06	1.157700E+02
2.885240E-02	4.182695E-06	1.162100E+02
2.990093E-02	4.312505E-06	1.166500E+02
3.096252E-02	4.320185E-06	1.170900E+02
3.300202E-02	4.595934E-06	1.179900E+02
3.422173E-02	4.737264E-06	1.184800E+02
3.529483E-02	4.884740E-06	1.189100E+02
3.632034E-02	4.993810E-06	1.193600E+02
3.841587E-02	5.277240E-06	1.202400E+02
3.963021E-02	5.446222E-06	1.207500E+02
4.070024E-02	5.608291E-06	1.212000E+02
4.175492E-02	5.734260E-06	1.216400E+02
4.284260E-02	5.867142E-06	1.220900E+02
4.387041E-02	6.018458E-06	1.225300E+02
4.491741E-02	6.163629E-06	1.229600E+02
4.615631E-02	6.336451E-06	1.234800E+02
4.721175E-02	6.481623E-06	1.239200E+02
4.823189E-02	6.613736E-06	1.243700E+02
4.933339E-02	6.759675E-06	1.248100E+02
5.036120E-02	6.901006E-06	1.252900E+02
5.159242E-02	7.079973E-06	1.257600E+02
5.260719E-02	7.250492E-06	1.262100E+02
5.367875E-02	7.427155E-06	1.266400E+02
5.476106E-02	7.565413E-06	1.270900E+02
5.726956E-02	3.302326E-07	1.284100E+02
5.910105E-02	8.596973E-06	1.289400E+02
6.024323E-02	8.602350E-06	1.293900E+02
6.145219E-02	5.913470E-07	1.301300E+02
6.315856E-02	9.061674E-06	1.306300E+02
6.417255E-02	9.707311E-06	1.312000E+02
6.574382E-02	9.522535E-06	1.316900E+02
6.680924E-02	9.627764E-06	1.321400E+02
