CORRW ASCII
  CorrWare for Windows: Version 3.5f
  Potentiostatic	[-0.15 Ref,1.5 Min][default]	IV_-150mV_1.cor
  Date: 11-05-2019    Time: 16:52:28
   
   
  Open Circuit Potential (V): -0.0089
  Begin Information:          Cell Information
    Surface Area:             1
    Density:                  0
    Weight:                   0
    Polarity:                 0
    PolarityI:                0
    Corrosion Unit Type:      0
    Reference Type:           0
    Reference Potential:      0
    User-Defined Potential:   0
    Stern-Geary:              26
  End Information:            Cell Information
  Begin Pstat:                1287
    Pstat Title:              Instrument #1
    Booster Type:             0
    Booster Name:             None
    Current Range:            0
    Current Limit:            0
    Current LimitType:        0
    Sweep Type:               0
    Use Error Beep:           1
    Auxilary Type:            0
    iR Comp. Type:            0
    iR Ohms:                  0
    iR Time:                  27
    iR Ratio:                 255
    LP Filter Type:           2
    Drift Correction:         1
    Null Correction:          0
    Pstat Bandwidth Type:     2
    Gstat Bandwidth Type:     2
    External Input:           0
    SafetyMinV:               0
    SafetyMaxV:               10
    SafetyMinI:               0
    SafetyMaxI:               4
    SafetyMinQ:               0
    SafetyMaxQ:               1000
    SafetyMinT:               0
    SafetyMaxT:               50
    SafetyChT:                0
    SafetyMinVUse:            0
    SafetyMaxVUse:            0
    SafetyMinIUse:            0
    SafetyMaxIUse:            0
    SafetyMinQUse:            0
    SafetyMaxQUse:            0
    SafetyMinTUse:            0
    SafetyMaxTUse:            0
  End Pstat:                  1287
  Begin Experiment:           Potentiostatic	[-0.15 Ref,1.5 Min][default]	IV_-150mV_1.cor
    Data File:                Z:\191101_Amezawa\fr_XAS\TPB2\500C 100%O2\Electrochem\IV_-150mV_1.cor
    Data Append:              0
    Comment Lines:            0
    Potential:                -0.15
    Potential Type:           1
    Total Time:               1.5
    Time Units:               1
    Time Marker:              -1
    Measure Rate Type:        1
    Measure Rate #1:          2000
    Measure Rate #2:          10
    Measure Rate #3:          0.1
    Measure Rate #4:          2
    Use Threshold:            0
    Threshold I_Min:          -15
    Threshold I_Max:          15
    Threshold Delta:          5
    Threshold Time:           60
    Copy AuxV:                0
    Axes Type:                1
    Use Custom Pstat:         0
  End Experiment:             Potentiostatic	[-0.15 Ref,1.5 Min][default]	IV_-150mV_1.cor
  Data Points:                196
  E(Volts)	I(A/cm2)	T(Seconds)
End Comments
-1.499460E-01	-9.601309E-09	0.000000E+00
-1.499437E-01	-9.601309E-09	8.800000E-01
-1.499483E-01	2.189085E-08	1.320000E+00
-1.499452E-01	-2.035473E-08	1.760000E+00
-1.499437E-01	-1.651421E-08	2.210000E+00
-1.499452E-01	-9.601309E-09	2.650000E+00
-1.499437E-01	-1.344181E-08	3.090000E+00
-1.499460E-01	-1.190562E-08	3.530000E+00
-1.499422E-01	-1.113750E-08	3.980000E+00
-1.499429E-01	1.344174E-08	4.420000E+00
-1.499445E-01	1.420984E-08	4.870000E+00
-1.499422E-01	-1.344181E-08	5.310000E+00
-1.499452E-01	-1.574611E-08	5.750000E+00
-1.499437E-01	-1.267371E-08	6.190000E+00
-1.499429E-01	-1.420992E-08	6.630000E+00
-1.499452E-01	-1.497802E-08	7.080000E+00
-1.499452E-01	1.497793E-08	7.520000E+00
-1.499429E-01	1.344174E-08	7.970000E+00
-1.499437E-01	-2.189094E-08	8.410000E+00
-1.499445E-01	-2.189094E-08	8.860000E+00
-1.499452E-01	9.601222E-09	9.300000E+00
-1.499468E-01	3.878908E-08	9.740000E+00
-1.499429E-01	1.881845E-08	1.063000E+01
-1.499460E-01	2.342704E-08	1.108000E+01
-1.499460E-01	-1.420990E-08	1.152000E+01
-1.499437E-01	-1.728230E-08	1.197000E+01
-1.499483E-01	-1.152197E-09	1.240000E+01
-1.499429E-01	-2.496332E-08	1.285000E+01
-1.499452E-01	-2.688388E-09	1.329000E+01
-1.499468E-01	3.571665E-08	1.372000E+01
-1.499460E-01	2.803566E-08	1.417000E+01
-1.499452E-01	1.344172E-08	1.461000E+01
-1.499429E-01	2.342704E-08	1.506000E+01
-1.499460E-01	-2.419523E-08	1.550000E+01
-1.499468E-01	3.264427E-08	1.595000E+01
-1.499429E-01	-2.573142E-08	1.638000E+01
-1.499429E-01	-1.152197E-09	1.682000E+01
-1.499445E-01	-3.456504E-09	1.727000E+01
-1.499414E-01	5.031059E-08	1.771000E+01
-1.499468E-01	1.036934E-08	1.817000E+01
-1.499452E-01	-1.267371E-08	1.861000E+01
-1.499483E-01	-9.601309E-09	1.906000E+01
-1.499468E-01	1.344172E-08	1.949000E+01
-1.499445E-01	-3.187624E-08	1.994000E+01
-1.499422E-01	-1.574614E-08	2.081000E+01
-1.499468E-01	-1.651423E-08	2.126000E+01
-1.499429E-01	2.112271E-08	2.170000E+01
-1.499452E-01	-1.267371E-08	2.214000E+01
-1.499452E-01	1.190553E-08	2.258000E+01
-1.499445E-01	2.419514E-08	2.303000E+01
-1.499445E-01	-3.648486E-08	2.347000E+01
-1.499460E-01	-2.189094E-08	2.393000E+01
-1.499429E-01	2.573133E-08	2.437000E+01
-1.499460E-01	-2.803574E-08	2.481000E+01
-1.499437E-01	-2.957196E-08	2.526000E+01
-1.499445E-01	-2.189094E-08	2.569000E+01
-1.499437E-01	-2.649953E-08	2.614000E+01
-1.499437E-01	-2.496334E-08	2.658000E+01
-1.499429E-01	-2.649953E-08	2.703000E+01
-1.499429E-01	-1.651423E-08	2.746000E+01
-1.499452E-01	1.805033E-08	2.792000E+01
-1.499437E-01	2.419514E-08	2.835000E+01
-1.499460E-01	-4.992695E-09	2.879000E+01
-1.499476E-01	-2.688409E-09	2.924000E+01
-1.499445E-01	-2.880382E-08	2.968000E+01
-1.499429E-01	3.840148E-10	3.057000E+01
-1.499414E-01	-1.920292E-09	3.102000E+01
-1.499429E-01	3.571667E-08	3.145000E+01
-1.499476E-01	-6.528907E-09	3.190000E+01
-1.499460E-01	3.341237E-08	3.234000E+01
-1.499422E-01	-3.456482E-09	3.277000E+01
-1.499422E-01	-1.152175E-09	3.322000E+01
-1.499429E-01	-1.267371E-08	3.366000E+01
-1.499414E-01	-1.420992E-08	3.411000E+01
-1.499445E-01	1.574603E-08	3.455000E+01
-1.499445E-01	-1.805042E-08	3.500000E+01
-1.499437E-01	8.833126E-09	3.543000E+01
-1.499429E-01	3.456395E-09	3.588000E+01
-1.499445E-01	2.035464E-08	3.632000E+01
-1.499468E-01	-2.265904E-08	3.676000E+01
-1.499460E-01	-2.419523E-08	3.721000E+01
-1.499437E-01	-4.992695E-09	3.765000E+01
-1.499407E-01	-2.342713E-08	3.810000E+01
-1.499445E-01	-8.833214E-09	3.853000E+01
-1.499422E-01	-1.267371E-08	3.898000E+01
-1.499437E-01	4.032526E-08	3.942000E+01
-1.499483E-01	4.186148E-08	3.987000E+01
-1.499407E-01	-2.803572E-08	4.075000E+01
-1.499414E-01	2.419516E-08	4.119000E+01
-1.499452E-01	-2.957193E-08	4.163000E+01
-1.499429E-01	-1.574611E-08	4.208000E+01
-1.499422E-01	-1.344181E-08	4.252000E+01
-1.499452E-01	-1.267371E-08	4.297000E+01
-1.499468E-01	4.647009E-08	4.341000E+01
-1.499445E-01	5.261488E-08	4.386000E+01
-1.499429E-01	1.958655E-08	4.430000E+01
-1.499414E-01	-3.110813E-08	4.473000E+01
-1.499452E-01	-3.264434E-08	4.518000E+01
-1.499468E-01	-1.036940E-08	4.562000E+01
-1.499445E-01	-1.267371E-08	4.607000E+01
-1.499429E-01	4.186148E-08	4.651000E+01
-1.499452E-01	4.416578E-08	4.696000E+01
-1.499460E-01	-4.416585E-08	4.740000E+01
-1.499452E-01	1.651414E-08	4.785000E+01
-1.499414E-01	-3.418055E-08	4.829000E+01
-1.499414E-01	-1.920292E-09	4.873000E+01
-1.499437E-01	-9.601309E-09	4.918000E+01
-1.499460E-01	4.262957E-08	4.962000E+01
-1.499445E-01	5.107871E-08	5.007000E+01
-1.499468E-01	6.413641E-08	5.095000E+01
-1.499429E-01	-3.878914E-08	5.139000E+01
-1.499429E-01	-2.957193E-08	5.183000E+01
-1.499476E-01	-3.418055E-08	5.228000E+01
-1.499468E-01	5.875970E-08	5.272000E+01
-1.499506E-01	4.647009E-08	5.317000E+01
-1.499445E-01	5.645542E-08	5.360000E+01
-1.499437E-01	2.649947E-08	5.405000E+01
-1.499445E-01	6.413641E-08	5.449000E+01
-1.499407E-01	6.106401E-08	5.494000E+01
-1.499452E-01	-3.571674E-08	5.538000E+01
-1.499445E-01	-3.571674E-08	5.581000E+01
-1.499429E-01	-3.187624E-08	5.626000E+01
-1.499452E-01	-1.267371E-08	5.670000E+01
-1.499429E-01	-4.570206E-08	5.715000E+01
-1.499445E-01	-2.189092E-08	5.758000E+01
-1.499437E-01	-2.265901E-08	5.803000E+01
-1.499399E-01	5.491921E-08	5.847000E+01
-1.499429E-01	5.415111E-08	5.892000E+01
-1.499452E-01	4.723819E-08	5.936000E+01
-1.499422E-01	-1.036940E-08	5.980000E+01
-1.499445E-01	-8.065097E-09	6.068000E+01
-1.499445E-01	-4.877446E-08	6.113000E+01
-1.499445E-01	-3.341246E-08	6.157000E+01
-1.499468E-01	-2.880384E-08	6.202000E+01
-1.499452E-01	-1.420992E-08	6.246000E+01
-1.499476E-01	-3.494864E-08	6.290000E+01
-1.499460E-01	-1.497802E-08	6.334000E+01
-1.499460E-01	-3.034005E-08	6.380000E+01
-1.499460E-01	-5.760790E-09	6.425000E+01
-1.499429E-01	-3.418055E-08	6.469000E+01
-1.499414E-01	-3.341246E-08	6.514000E+01
-1.499422E-01	1.920205E-09	6.558000E+01
-1.499437E-01	1.920205E-09	6.603000E+01
-1.499445E-01	5.760703E-09	6.647000E+01
-1.499460E-01	7.296915E-09	6.692000E+01
-1.499414E-01	-2.265904E-08	6.735000E+01
-1.499460E-01	-2.419525E-08	6.779000E+01
-1.499452E-01	-2.189094E-08	6.824000E+01
-1.499445E-01	-1.344181E-08	6.868000E+01
-1.499422E-01	-1.113750E-08	6.913000E+01
-1.499422E-01	1.574605E-08	6.956000E+01
-1.499445E-01	3.187618E-08	7.001000E+01
-1.499437E-01	2.419516E-08	7.090000E+01
-1.499414E-01	3.341239E-08	7.133000E+01
-1.499422E-01	-6.528907E-09	7.177000E+01
-1.499452E-01	-1.113750E-08	7.222000E+01
-1.499445E-01	-3.840803E-10	7.266000E+01
-1.499452E-01	-8.065097E-09	7.311000E+01
-1.499460E-01	-3.840803E-10	7.354000E+01
-1.499437E-01	-3.840803E-10	7.399000E+01
-1.499452E-01	-2.688388E-09	7.443000E+01
-1.499429E-01	1.920227E-09	7.488000E+01
-1.499452E-01	2.573135E-08	7.532000E+01
-1.499476E-01	3.456417E-09	7.576000E+01
-1.499468E-01	1.728224E-08	7.620000E+01
-1.499460E-01	5.760724E-09	7.664000E+01
-1.499476E-01	6.528841E-09	7.709000E+01
-1.499429E-01	1.420984E-08	7.753000E+01
-1.499452E-01	1.190555E-08	7.798000E+01
-1.499445E-01	1.574603E-08	7.842000E+01
-1.499429E-01	1.574603E-08	7.887000E+01
-1.499468E-01	1.113743E-08	7.931000E+01
-1.499414E-01	-2.688366E-09	7.975000E+01
-1.499445E-01	1.920205E-09	8.064000E+01
-1.499437E-01	1.920205E-09	8.109000E+01
-1.499452E-01	1.152132E-09	8.153000E+01
-1.499483E-01	3.840367E-10	8.198000E+01
-1.499452E-01	2.688322E-09	8.242000E+01
-1.499460E-01	1.920205E-09	8.287000E+01
-1.499445E-01	1.152132E-09	8.330000E+01
-1.499452E-01	-1.152175E-09	8.374000E+01
-1.499445E-01	3.840367E-10	8.419000E+01
-1.499468E-01	6.528819E-09	8.463000E+01
-1.499460E-01	4.992629E-09	8.508000E+01
-1.499460E-01	3.840367E-10	8.552000E+01
-1.499445E-01	-1.152175E-09	8.597000E+01
-1.499476E-01	-4.224578E-09	8.641000E+01
-1.499452E-01	-1.920271E-09	8.685000E+01
-1.499414E-01	-8.833192E-09	8.729000E+01
-1.499483E-01	8.065031E-09	8.773000E+01
-1.499460E-01	9.601243E-09	8.818000E+01
-1.499476E-01	-3.840803E-10	8.862000E+01
-1.499460E-01	-3.840803E-10	8.907000E+01
-1.499460E-01	-4.992673E-09	8.951000E+01
-1.499483E-01	3.840367E-10	8.995000E+01
-1.499445E-01	7.296936E-09	9.000000E+01
