CORRW ASCII
  CorrWare for Windows: Version 3.5f
  Potentiostatic	[-0.1 Ref,1.5 Min][default]	IV_-100mV_1.cor
  Date: 11-05-2019    Time: 16:50:55
   
   
  Open Circuit Potential (V): -0.0089
  Begin Information:          Cell Information
    Surface Area:             1
    Density:                  0
    Weight:                   0
    Polarity:                 0
    PolarityI:                0
    Corrosion Unit Type:      0
    Reference Type:           0
    Reference Potential:      0
    User-Defined Potential:   0
    Stern-Geary:              26
  End Information:            Cell Information
  Begin Pstat:                1287
    Pstat Title:              Instrument #1
    Booster Type:             0
    Booster Name:             None
    Current Range:            0
    Current Limit:            0
    Current LimitType:        0
    Sweep Type:               0
    Use Error Beep:           1
    Auxilary Type:            0
    iR Comp. Type:            0
    iR Ohms:                  0
    iR Time:                  27
    iR Ratio:                 255
    LP Filter Type:           2
    Drift Correction:         1
    Null Correction:          0
    Pstat Bandwidth Type:     2
    Gstat Bandwidth Type:     2
    External Input:           0
    SafetyMinV:               0
    SafetyMaxV:               10
    SafetyMinI:               0
    SafetyMaxI:               4
    SafetyMinQ:               0
    SafetyMaxQ:               1000
    SafetyMinT:               0
    SafetyMaxT:               50
    SafetyChT:                0
    SafetyMinVUse:            0
    SafetyMaxVUse:            0
    SafetyMinIUse:            0
    SafetyMaxIUse:            0
    SafetyMinQUse:            0
    SafetyMaxQUse:            0
    SafetyMinTUse:            0
    SafetyMaxTUse:            0
  End Pstat:                  1287
  Begin Experiment:           Potentiostatic	[-0.1 Ref,1.5 Min][default]	IV_-100mV_1.cor
    Data File:                Z:\191101_Amezawa\fr_XAS\TPB2\500C 100%O2\Electrochem\IV_-100mV_1.cor
    Data Append:              0
    Comment Lines:            0
    Potential:                -0.1
    Potential Type:           1
    Total Time:               1.5
    Time Units:               1
    Time Marker:              -1
    Measure Rate Type:        1
    Measure Rate #1:          2000
    Measure Rate #2:          10
    Measure Rate #3:          0.1
    Measure Rate #4:          2
    Use Threshold:            0
    Threshold I_Min:          -15
    Threshold I_Max:          15
    Threshold Delta:          5
    Threshold Time:           60
    Copy AuxV:                0
    Axes Type:                1
    Use Custom Pstat:         0
  End Experiment:             Potentiostatic	[-0.1 Ref,1.5 Min][default]	IV_-100mV_1.cor
  Data Points:                196
  E(Volts)	I(A/cm2)	T(Seconds)
End Comments
-9.995635E-02	-8.833192E-09	0.000000E+00
-9.995327E-02	6.528819E-09	8.800000E-01
-9.995173E-02	-4.992695E-09	1.320000E+00
-9.995327E-02	3.456417E-09	1.750000E+00
-9.995019E-02	2.688322E-09	2.200000E+00
-9.995481E-02	8.065031E-09	2.640000E+00
-9.995481E-02	3.840148E-10	3.090000E+00
-9.995710E-02	7.296936E-09	3.530000E+00
-9.995481E-02	5.760724E-09	3.980000E+00
-9.995327E-02	-4.992695E-09	4.420000E+00
-9.995404E-02	-2.688388E-09	4.870000E+00
-9.994944E-02	3.840148E-10	5.300000E+00
-9.995250E-02	9.601243E-09	5.740000E+00
-9.995173E-02	-1.152197E-09	6.190000E+00
-9.994944E-02	9.601243E-09	6.620000E+00
-9.995096E-02	1.036934E-08	7.070000E+00
-9.995557E-02	-1.920292E-09	7.510000E+00
-9.995250E-02	-3.840803E-10	7.960000E+00
-9.995481E-02	8.833126E-09	8.410000E+00
-9.995250E-02	7.296936E-09	8.860000E+00
-9.995404E-02	1.497795E-08	9.290000E+00
-9.995250E-02	8.065010E-09	9.730000E+00
-9.995557E-02	4.224512E-09	1.061000E+01
-9.995481E-02	6.528819E-09	1.106000E+01
-9.995557E-02	-9.601309E-09	1.150000E+01
-9.995404E-02	1.036932E-08	1.195000E+01
-9.996018E-02	-7.297002E-09	1.238000E+01
-9.995327E-02	9.601222E-09	1.282000E+01
-9.995327E-02	2.112276E-08	1.328000E+01
-9.995481E-02	-8.833214E-09	1.372000E+01
-9.995481E-02	-9.601309E-09	1.417000E+01
-9.995633E-02	3.839930E-10	1.461000E+01
-9.995481E-02	-1.920292E-09	1.506000E+01
-9.995404E-02	3.033994E-08	1.549000E+01
-9.995481E-02	-4.224599E-09	1.594000E+01
-9.995557E-02	2.803564E-08	1.638000E+01
-9.995481E-02	2.688300E-09	1.682000E+01
-9.995481E-02	4.224512E-09	1.727000E+01
-9.995557E-02	-7.297002E-09	1.771000E+01
-9.995557E-02	1.344172E-08	1.816000E+01
-9.995557E-02	4.032526E-08	1.860000E+01
-9.995327E-02	6.528819E-09	1.904000E+01
-9.995481E-02	4.032526E-08	1.948000E+01
-9.995557E-02	4.262959E-08	1.993000E+01
-9.995633E-02	-2.189092E-08	2.081000E+01
-9.995404E-02	-1.958663E-08	2.126000E+01
-9.995481E-02	-5.760790E-09	2.169000E+01
-9.995404E-02	-2.688388E-09	2.214000E+01
-9.995787E-02	2.035466E-08	2.258000E+01
-9.995557E-02	4.262959E-08	2.303000E+01
-9.995633E-02	-2.035471E-08	2.347000E+01
-9.995712E-02	-1.651421E-08	2.392000E+01
-9.995864E-02	9.601222E-09	2.436000E+01
-9.995712E-02	3.494858E-08	2.480000E+01
-9.995327E-02	4.224512E-09	2.524000E+01
-9.995712E-02	3.494858E-08	2.568000E+01
-9.995633E-02	3.418046E-08	2.613000E+01
-9.995557E-02	-1.152175E-09	2.657000E+01
-9.995250E-02	2.688300E-09	2.702000E+01
-9.995712E-02	1.152132E-09	2.746000E+01
-9.995327E-02	2.342706E-08	2.791000E+01
-9.995327E-02	2.957185E-08	2.835000E+01
-9.995404E-02	8.833126E-09	2.879000E+01
-9.995712E-02	9.601222E-09	2.924000E+01
-9.995635E-02	-1.190562E-08	2.967000E+01
-9.995327E-02	-4.224578E-09	3.056000E+01
-9.995250E-02	-8.065097E-09	3.101000E+01
-9.995404E-02	9.601222E-09	3.145000E+01
-9.995557E-02	5.760724E-09	3.190000E+01
-9.995941E-02	2.496328E-08	3.233000E+01
-9.995635E-02	-5.760790E-09	3.277000E+01
-9.995635E-02	-8.065097E-09	3.322000E+01
-9.995481E-02	4.992607E-09	3.366000E+01
-9.995250E-02	1.920227E-09	3.411000E+01
-9.995635E-02	2.496328E-08	3.455000E+01
-9.995173E-02	6.528819E-09	3.500000E+01
-9.995404E-02	2.189085E-08	3.543000E+01
-9.995173E-02	2.112276E-08	3.588000E+01
-9.995250E-02	7.296915E-09	3.632000E+01
-9.995327E-02	2.688300E-09	3.676000E+01
-9.995557E-02	1.152132E-09	3.721000E+01
-9.995941E-02	1.344174E-08	3.765000E+01
-9.995404E-02	1.152132E-09	3.810000E+01
-9.995327E-02	1.651414E-08	3.853000E+01
-9.995481E-02	1.190553E-08	3.898000E+01
-9.995327E-02	1.420984E-08	3.942000E+01
-9.995557E-02	1.958655E-08	3.987000E+01
-9.995327E-02	-1.036940E-08	4.075000E+01
-9.995481E-02	-1.344181E-08	4.119000E+01
-9.995635E-02	-1.113750E-08	4.163000E+01
-9.995481E-02	-1.344181E-08	4.208000E+01
-9.995404E-02	3.494858E-08	4.252000E+01
-9.995557E-02	3.571667E-08	4.297000E+01
-9.995481E-02	-1.267371E-08	4.341000E+01
-9.995250E-02	-1.651421E-08	4.386000E+01
-9.995710E-02	-7.297002E-09	4.430000E+01
-9.995557E-02	2.035466E-08	4.474000E+01
-9.995327E-02	1.651414E-08	4.519000E+01
-9.995327E-02	1.805036E-08	4.563000E+01
-9.995404E-02	2.189085E-08	4.608000E+01
-9.995250E-02	-1.344181E-08	4.652000E+01
-9.995327E-02	-8.833192E-09	4.697000E+01
-9.995710E-02	2.880375E-08	4.741000E+01
-9.995250E-02	3.033997E-08	4.786000E+01
-9.995327E-02	-1.920271E-09	4.830000E+01
-9.995481E-02	-1.420990E-08	4.873000E+01
-9.995173E-02	-1.036940E-08	4.918000E+01
-9.995404E-02	2.265897E-08	4.962000E+01
-9.995250E-02	2.880377E-08	5.007000E+01
-9.995481E-02	7.296936E-09	5.095000E+01
-9.995633E-02	2.265895E-08	5.139000E+01
-9.995633E-02	4.109338E-08	5.183000E+01
-9.995787E-02	2.496325E-08	5.228000E+01
-9.995557E-02	5.760724E-09	5.272000E+01
-9.995633E-02	8.833126E-09	5.317000E+01
-9.995940E-02	1.728224E-08	5.361000E+01
-9.995327E-02	8.833126E-09	5.405000E+01
-9.995250E-02	1.420984E-08	5.449000E+01
-9.995404E-02	1.651414E-08	5.494000E+01
-9.995327E-02	3.341239E-08	5.538000E+01
-9.995557E-02	5.760724E-09	5.582000E+01
-9.995327E-02	5.760724E-09	5.627000E+01
-9.995481E-02	1.152110E-09	5.670000E+01
-9.995250E-02	5.760724E-09	5.715000E+01
-9.995633E-02	1.344172E-08	5.759000E+01
-9.995327E-02	2.880377E-08	5.804000E+01
-9.995404E-02	2.880377E-08	5.848000E+01
-9.995712E-02	2.803566E-08	5.893000E+01
-9.995404E-02	5.760724E-09	5.937000E+01
-9.995481E-02	1.152110E-09	5.981000E+01
-9.995710E-02	1.152110E-09	6.069000E+01
-9.995710E-02	-1.152175E-09	6.114000E+01
-9.995404E-02	2.342706E-08	6.158000E+01
-9.995250E-02	7.296936E-09	6.203000E+01
-9.995710E-02	-1.920271E-09	6.247000E+01
-9.995633E-02	8.065031E-09	6.293000E+01
-9.995250E-02	8.833126E-09	6.337000E+01
-9.995633E-02	-5.760790E-09	6.380000E+01
-9.995481E-02	1.190553E-08	6.425000E+01
-9.995250E-02	-6.528885E-09	6.469000E+01
-9.995633E-02	-5.760790E-09	6.514000E+01
-9.995404E-02	2.688322E-09	6.558000E+01
-9.995633E-02	8.833126E-09	6.603000E+01
-9.995250E-02	1.267365E-08	6.647000E+01
-9.995557E-02	-4.224578E-09	6.692000E+01
-9.995633E-02	-5.760790E-09	6.736000E+01
-9.995788E-02	4.224512E-09	6.779000E+01
-9.995173E-02	3.456417E-09	6.824000E+01
-9.995788E-02	1.805036E-08	6.868000E+01
-9.995404E-02	1.881845E-08	6.913000E+01
-9.995788E-02	-3.841021E-10	6.957000E+01
-9.995327E-02	-1.920314E-09	7.002000E+01
-9.995019E-02	-3.841021E-10	7.090000E+01
-9.995250E-02	-1.420992E-08	7.134000E+01
-9.995096E-02	1.267362E-08	7.178000E+01
-9.995327E-02	1.267362E-08	7.223000E+01
-9.995250E-02	1.920205E-09	7.267000E+01
-9.995633E-02	1.920205E-09	7.312000E+01
-9.995481E-02	-2.112282E-08	7.355000E+01
-9.995404E-02	9.601222E-09	7.400000E+01
-9.995558E-02	-1.728232E-08	7.444000E+01
-9.995250E-02	-1.881854E-08	7.489000E+01
-9.995327E-02	-3.456504E-09	7.533000E+01
-9.995096E-02	-1.497802E-08	7.577000E+01
-9.995250E-02	-1.651423E-08	7.622000E+01
-9.995327E-02	-1.344181E-08	7.666000E+01
-9.995250E-02	2.035462E-08	7.713000E+01
-9.995174E-02	-5.760790E-09	7.757000E+01
-9.995096E-02	3.839930E-10	7.802000E+01
-9.995404E-02	-1.190562E-08	7.846000E+01
-9.995558E-02	1.152110E-09	7.890000E+01
-9.995250E-02	-1.574611E-08	7.934000E+01
-9.995635E-02	2.726756E-08	7.978000E+01
-9.995404E-02	2.573135E-08	8.066000E+01
-9.995173E-02	2.496325E-08	8.111000E+01
-9.995327E-02	1.881845E-08	8.155000E+01
-9.995327E-02	4.032526E-08	8.200000E+01
-9.995481E-02	2.573135E-08	8.244000E+01
-9.995557E-02	2.649947E-08	8.289000E+01
-9.995404E-02	-3.840803E-10	8.333000E+01
-9.995710E-02	9.601243E-09	8.376000E+01
-9.995481E-02	1.190553E-08	8.421000E+01
-9.995096E-02	4.032526E-08	8.465000E+01
-9.995557E-02	1.036934E-08	8.510000E+01
-9.995557E-02	4.032526E-08	8.553000E+01
-9.995635E-02	3.878908E-08	8.598000E+01
-9.995327E-02	1.344172E-08	8.642000E+01
-9.995404E-02	1.420984E-08	8.687000E+01
-9.995481E-02	-8.833214E-09	8.731000E+01
-9.995557E-02	1.920227E-09	8.775000E+01
-9.995019E-02	-1.497802E-08	8.820000E+01
-9.995787E-02	-2.688388E-09	8.863000E+01
-9.995019E-02	-7.297002E-09	8.908000E+01
-9.995250E-02	4.723819E-08	8.952000E+01
-9.995404E-02	4.493390E-08	8.997000E+01
-9.995250E-02	4.877440E-08	9.000000E+01
