CORRW ASCII
  CorrWare for Windows: Version 3.5f
  Potentiostatic	[-0.16 Ref,3600 Sec][default]	IV_-160mV_1.cor
  Date: 11-05-2019    Time: 17:26:04
   
   
  Open Circuit Potential (V): -0.0059
  Begin Information:          Cell Information
    Surface Area:             1
    Density:                  0
    Weight:                   0
    Polarity:                 0
    PolarityI:                0
    Corrosion Unit Type:      0
    Reference Type:           0
    Reference Potential:      0
    User-Defined Potential:   0
    Stern-Geary:              26
  End Information:            Cell Information
  Begin Pstat:                1287
    Pstat Title:              Instrument #1
    Booster Type:             0
    Booster Name:             None
    Current Range:            0
    Current Limit:            0
    Current LimitType:        0
    Sweep Type:               0
    Use Error Beep:           1
    Auxilary Type:            0
    iR Comp. Type:            0
    iR Ohms:                  0
    iR Time:                  27
    iR Ratio:                 255
    LP Filter Type:           2
    Drift Correction:         1
    Null Correction:          0
    Pstat Bandwidth Type:     2
    Gstat Bandwidth Type:     2
    External Input:           0
    SafetyMinV:               0
    SafetyMaxV:               10
    SafetyMinI:               0
    SafetyMaxI:               4
    SafetyMinQ:               0
    SafetyMaxQ:               1000
    SafetyMinT:               0
    SafetyMaxT:               50
    SafetyChT:                0
    SafetyMinVUse:            0
    SafetyMaxVUse:            0
    SafetyMinIUse:            0
    SafetyMaxIUse:            0
    SafetyMinQUse:            0
    SafetyMaxQUse:            0
    SafetyMinTUse:            0
    SafetyMaxTUse:            0
  End Pstat:                  1287
  Begin Experiment:           Potentiostatic	[-0.16 Ref,3600 Sec][default]	IV_-160mV_1.cor
    Data File:                Z:\191101_Amezawa\fr_XAS\TPB2\500C 100%O2\Electrochem\IV_-160mV_1.cor
    Data Append:              0
    Comment Lines:            0
    Potential:                -0.16
    Potential Type:           1
    Total Time:               3600
    Time Units:               0
    Time Marker:              -1
    Measure Rate Type:        1
    Measure Rate #1:          2000
    Measure Rate #2:          10
    Measure Rate #3:          0.1
    Measure Rate #4:          2
    Use Threshold:            0
    Threshold I_Min:          -15
    Threshold I_Max:          15
    Threshold Delta:          5
    Threshold Time:           60
    Copy AuxV:                0
    Axes Type:                1
    Use Custom Pstat:         0
  End Experiment:             Potentiostatic	[-0.16 Ref,3600 Sec][default]	IV_-160mV_1.cor
  Data Points:                1144
  E(Volts)	I(A/cm2)	T(Seconds)
End Comments
-1.368600E-01	1.543647E-05	0.000000E+00
-1.600146E-01	-1.006058E-06	1.160000E+00
-1.600706E-01	-4.807577E-06	1.720000E+00
-1.596676E-01	-7.403361E-06	2.380000E+00
-1.600637E-01	-7.841111E-06	2.820000E+00
-1.600706E-01	-8.301901E-06	3.270000E+00
-1.600714E-01	-8.755012E-06	3.710000E+00
-1.600698E-01	-8.900928E-06	4.160000E+00
-1.600698E-01	-9.100604E-06	4.600000E+00
-1.610009E-01	-1.009898E-05	5.520000E+00
-1.611629E-01	-1.012970E-05	6.360000E+00
-1.545992E-01	-6.069152E-06	6.870000E+00
-1.600921E-01	-9.522995E-06	7.420000E+00
-1.600698E-01	-9.069885E-06	7.870000E+00
-1.600698E-01	-8.854850E-06	8.310000E+00
-1.600691E-01	-8.862529E-06	8.750000E+00
-1.609203E-01	-9.622833E-06	9.840000E+00
-1.599186E-01	-8.931648E-06	1.051000E+01
-1.600714E-01	-9.162043E-06	1.124000E+01
-1.600691E-01	-8.678213E-06	1.168000E+01
-1.600691E-01	-8.632133E-06	1.213000E+01
-1.600691E-01	-8.716612E-06	1.257000E+01
-1.600675E-01	-8.670533E-06	1.302000E+01
-1.607592E-01	-9.154363E-06	1.364000E+01
-1.610216E-01	-9.361718E-06	1.428000E+01
-1.611598E-01	-9.300280E-06	1.489000E+01
-1.600959E-01	-8.847170E-06	1.573000E+01
-1.600675E-01	-8.378700E-06	1.619000E+01
-1.600683E-01	-8.616775E-06	1.662000E+01
-1.600683E-01	-8.570695E-06	1.707000E+01
-1.599724E-01	-8.586055E-06	1.764000E+01
-1.598803E-01	-8.970047E-06	1.819000E+01
-1.597743E-01	-8.993086E-06	1.874000E+01
-1.600675E-01	-8.578375E-06	1.963000E+01
-1.600683E-01	-8.570696E-06	2.008000E+01
-1.600691E-01	-8.501577E-06	2.051000E+01
-1.600698E-01	-8.509257E-06	2.096000E+01
-1.600698E-01	-8.394059E-06	2.140000E+01
-1.608443E-01	-9.223481E-06	2.194000E+01
-1.597459E-01	-8.486218E-06	2.257000E+01
-1.546867E-01	-4.998419E-06	2.307000E+01
-1.608006E-01	-8.708932E-06	2.364000E+01
-1.597459E-01	-8.424779E-06	2.424000E+01
-1.600683E-01	-8.401739E-06	2.486000E+01
-1.595517E-01	-7.825752E-06	2.537000E+01
-1.600614E-01	-8.109905E-06	2.581000E+01
-1.600683E-01	-8.163664E-06	2.626000E+01
-1.600691E-01	-8.148305E-06	2.670000E+01
-1.600683E-01	-8.155985E-06	2.715000E+01
-1.600698E-01	-8.102225E-06	2.759000E+01
-1.600691E-01	-8.094546E-06	2.804000E+01
-1.600691E-01	-8.209743E-06	2.848000E+01
-1.600683E-01	-8.240463E-06	2.893000E+01
-1.600706E-01	-8.148305E-06	2.979000E+01
-1.607568E-01	-8.839490E-06	3.069000E+01
-1.609303E-01	-8.993087E-06	3.145000E+01
-1.599178E-01	-8.601415E-06	3.206000E+01
-1.598672E-01	-8.294222E-06	3.273000E+01
-1.609649E-01	-8.063826E-06	3.329000E+01
-1.600714E-01	-7.933270E-06	3.391000E+01
-1.600706E-01	-7.626076E-06	3.449000E+01
-1.600860E-01	-8.125266E-06	3.504000E+01
-1.600675E-01	-7.864151E-06	3.548000E+01
-1.600668E-01	-7.894871E-06	3.593000E+01
-1.600668E-01	-8.025429E-06	3.637000E+01
-1.600691E-01	-7.879511E-06	3.681000E+01
-1.600668E-01	-7.887191E-06	3.726000E+01
-1.600683E-01	-7.887191E-06	3.769000E+01
-1.604429E-01	-8.278862E-06	3.824000E+01
-1.607077E-01	-7.902550E-06	3.879000E+01
-1.608912E-01	-7.994709E-06	3.979000E+01
-1.604836E-01	-8.931648E-06	4.033000E+01
-1.600783E-01	-8.209744E-06	4.093000E+01
-1.600729E-01	-7.756634E-06	4.148000E+01
-1.600698E-01	-7.626076E-06	4.193000E+01
-1.600675E-01	-7.825752E-06	4.237000E+01
-1.600683E-01	-7.802712E-06	4.281000E+01
-1.600675E-01	-7.848792E-06	4.325000E+01
-1.600683E-01	-7.848792E-06	4.369000E+01
-1.607806E-01	-8.094546E-06	4.429000E+01
-1.609441E-01	-8.148305E-06	4.491000E+01
-1.610685E-01	-8.255823E-06	4.558000E+01
-1.547941E-01	-4.579804E-06	4.608000E+01
-1.597728E-01	-7.871830E-06	4.689000E+01
-1.600691E-01	-8.424779E-06	4.755000E+01
-1.600706E-01	-8.371020E-06	4.828000E+01
-1.596500E-01	-8.209743E-06	4.884000E+01
-1.600691E-01	-7.902549E-06	4.972000E+01
-1.600683E-01	-7.894870E-06	5.017000E+01
-1.600698E-01	-7.887190E-06	5.061000E+01
-1.600706E-01	-7.810391E-06	5.106000E+01
-1.600698E-01	-7.825752E-06	5.150000E+01
-1.600691E-01	-7.871830E-06	5.194000E+01
-1.600683E-01	-7.779673E-06	5.238000E+01
-1.600698E-01	-7.856471E-06	5.282000E+01
-1.600683E-01	-7.787352E-06	5.327000E+01
-1.606908E-01	-8.340300E-06	5.390000E+01
-1.607937E-01	-8.063826E-06	5.456000E+01
-1.608843E-01	-8.048467E-06	5.515000E+01
-1.599340E-01	-7.733594E-06	5.572000E+01
-1.609902E-01	-7.695195E-06	5.631000E+01
-1.598726E-01	-7.756634E-06	5.716000E+01
-1.545815E-01	-4.857088E-06	5.768000E+01
-1.598480E-01	-8.524617E-06	5.817000E+01
-1.599869E-01	-8.063826E-06	5.878000E+01
-1.600407E-01	-8.017748E-06	5.935000E+01
-1.596722E-01	-8.132945E-06	6.055000E+01
-1.600729E-01	-8.309581E-06	6.116000E+01
-1.600683E-01	-7.910230E-06	6.160000E+01
-1.600683E-01	-7.856471E-06	6.205000E+01
-1.600675E-01	-7.841111E-06	6.248000E+01
-1.600683E-01	-7.756634E-06	6.293000E+01
-1.600683E-01	-7.795032E-06	6.337000E+01
-1.600683E-01	-7.702874E-06	6.381000E+01
-1.600683E-01	-7.649116E-06	6.426000E+01
-1.600698E-01	-7.672155E-06	6.470000E+01
-1.600683E-01	-7.649116E-06	6.515000E+01
-1.600675E-01	-7.695195E-06	6.559000E+01
-1.606563E-01	-8.271181E-06	6.615000E+01
-1.608597E-01	-8.547656E-06	6.676000E+01
-1.610293E-01	-8.493897E-06	6.760000E+01
-1.599562E-01	-8.217423E-06	6.845000E+01
-1.612051E-01	-8.555336E-06	6.905000E+01
-1.600921E-01	-8.063826E-06	7.015000E+01
-1.600714E-01	-7.641436E-06	7.059000E+01
-1.600698E-01	-7.618396E-06	7.104000E+01
-1.600691E-01	-7.733594E-06	7.148000E+01
-1.600691E-01	-7.748954E-06	7.193000E+01
-1.600706E-01	-7.564638E-06	7.237000E+01
-1.608827E-01	-9.085244E-06	7.288000E+01
-1.609272E-01	-8.278861E-06	7.345000E+01
-1.612397E-01	-9.315640E-06	7.398000E+01
-1.611775E-01	-8.724292E-06	7.477000E+01
-1.597336E-01	-7.979348E-06	7.541000E+01
-1.601220E-01	-8.071506E-06	7.629000E+01
-1.600691E-01	-7.649116E-06	7.673000E+01
-1.600691E-01	-7.672155E-06	7.718000E+01
-1.600683E-01	-7.741274E-06	7.761000E+01
-1.607845E-01	-9.208122E-06	7.813000E+01
-1.599363E-01	-8.117585E-06	7.883000E+01
-1.598933E-01	-8.132944E-06	7.952000E+01
-1.597098E-01	-7.871830E-06	8.057000E+01
-1.600637E-01	-7.695195E-06	8.102000E+01
-1.600698E-01	-7.656796E-06	8.145000E+01
-1.600691E-01	-7.687515E-06	8.190000E+01
-1.600698E-01	-7.672155E-06	8.234000E+01
-1.607876E-01	-8.470858E-06	8.307000E+01
-1.610478E-01	-8.586055E-06	8.379000E+01
-1.597743E-01	-7.948629E-06	8.438000E+01
-1.600683E-01	-7.917910E-06	8.496000E+01
-1.595509E-01	-7.656796E-06	8.550000E+01
-1.600629E-01	-7.618396E-06	8.595000E+01
-1.600706E-01	-7.641436E-06	8.639000E+01
-1.600691E-01	-7.495519E-06	8.683000E+01
-1.600698E-01	-7.510879E-06	8.728000E+01
-1.600691E-01	-7.457120E-06	8.771000E+01
-1.605481E-01	-8.109905E-06	8.825000E+01
-1.606072E-01	-8.071506E-06	8.881000E+01
-1.598887E-01	-7.887190E-06	8.980000E+01
-1.608950E-01	-8.424779E-06	9.041000E+01
-1.597167E-01	-8.040787E-06	9.137000E+01
-1.596484E-01	-8.010067E-06	9.222000E+01
-1.600821E-01	-7.787353E-06	9.278000E+01
-1.600683E-01	-7.579998E-06	9.324000E+01
-1.600714E-01	-7.533919E-06	9.368000E+01
-1.600698E-01	-7.411041E-06	9.413000E+01
-1.600691E-01	-7.457120E-06	9.457000E+01
-1.600691E-01	-7.449440E-06	9.502000E+01
-1.600691E-01	-7.510879E-06	9.546000E+01
-1.600706E-01	-7.318883E-06	9.590000E+01
-1.606609E-01	-7.764314E-06	9.645000E+01
-1.606739E-01	-8.248142E-06	9.700000E+01
-1.599209E-01	-7.925590E-06	9.756000E+01
-1.611729E-01	-8.839490E-06	9.808000E+01
-1.611844E-01	-8.747332E-06	9.876000E+01
-1.601527E-01	-7.963989E-06	9.968000E+01
-1.600691E-01	-7.388001E-06	1.005600E+02
-1.600698E-01	-7.403361E-06	1.010100E+02
-1.600691E-01	-7.388001E-06	1.014400E+02
-1.600698E-01	-7.357282E-06	1.018900E+02
-1.600691E-01	-7.372642E-06	1.023400E+02
-1.606801E-01	-8.102225E-06	1.029300E+02
-1.607676E-01	-7.603037E-06	1.038200E+02
-1.547742E-01	-4.302519E-06	1.043600E+02
-1.598925E-01	-7.771993E-06	1.049500E+02
-1.597981E-01	-7.679835E-06	1.056100E+02
-1.600691E-01	-8.079186E-06	1.065000E+02
-1.600721E-01	-7.963989E-06	1.072000E+02
-1.600675E-01	-7.541598E-06	1.076400E+02
-1.600683E-01	-7.449440E-06	1.080900E+02
-1.600698E-01	-7.480160E-06	1.085300E+02
-1.600706E-01	-7.334243E-06	1.089800E+02
-1.600698E-01	-7.472480E-06	1.098700E+02
-1.600706E-01	-7.487839E-06	1.103100E+02
-1.606954E-01	-7.894870E-06	1.109200E+02
-1.608298E-01	-8.002387E-06	1.115300E+02
-1.548371E-01	-4.065176E-06	1.120400E+02
-1.606501E-01	-7.395681E-06	1.126000E+02
-1.598457E-01	-7.894870E-06	1.135400E+02
-1.597920E-01	-7.894870E-06	1.141600E+02
-1.600499E-01	-7.894870E-06	1.146800E+02
-1.600706E-01	-7.848791E-06	1.153000E+02
-1.600860E-01	-7.910230E-06	1.159400E+02
-1.600683E-01	-7.411041E-06	1.163900E+02
-1.600675E-01	-7.372642E-06	1.168400E+02
-1.600714E-01	-7.426401E-06	1.172800E+02
-1.600691E-01	-7.510879E-06	1.177100E+02
-1.600706E-01	-7.411041E-06	1.181600E+02
-1.600706E-01	-7.434081E-06	1.186000E+02
-1.600714E-01	-7.449440E-06	1.190500E+02
-1.599432E-01	-7.748954E-06	1.201800E+02
-1.609487E-01	-8.186704E-06	1.207900E+02
-1.610531E-01	-8.278862E-06	1.214500E+02
-1.598618E-01	-7.764314E-06	1.220800E+02
-1.599846E-01	-7.833432E-06	1.228700E+02
-1.600322E-01	-7.894871E-06	1.234700E+02
-1.597160E-01	-8.094546E-06	1.240800E+02
-1.597152E-01	-8.140625E-06	1.247300E+02
-1.597037E-01	-7.994709E-06	1.253000E+02
-1.600691E-01	-7.887191E-06	1.258700E+02
-1.600721E-01	-7.841112E-06	1.265200E+02
-1.596438E-01	-7.718234E-06	1.271100E+02
-1.600652E-01	-7.487839E-06	1.275500E+02
-1.600721E-01	-7.503199E-06	1.280000E+02
-1.600714E-01	-7.426401E-06	1.284400E+02
-1.600714E-01	-7.411041E-06	1.288900E+02
-1.600698E-01	-7.280484E-06	1.297600E+02
-1.600714E-01	-7.326563E-06	1.302000E+02
-1.600714E-01	-7.311203E-06	1.306400E+02
-1.600706E-01	-7.295843E-06	1.310900E+02
-1.600706E-01	-7.288163E-06	1.315300E+02
-1.600706E-01	-7.334243E-06	1.319800E+02
-1.600706E-01	-7.341922E-06	1.324200E+02
-1.600706E-01	-7.249764E-06	1.328600E+02
-1.600691E-01	-7.249764E-06	1.333000E+02
-1.606663E-01	-7.733594E-06	1.339700E+02
-1.592062E-01	-7.172966E-06	1.345600E+02
-1.598910E-01	-9.415478E-06	1.355400E+02
-1.599370E-01	-7.718234E-06	1.361200E+02
-1.610432E-01	-8.716612E-06	1.366400E+02
-1.547051E-01	-3.942280E-06	1.371400E+02
-1.608083E-01	-7.518559E-06	1.376900E+02
-1.610669E-01	-8.186704E-06	1.382400E+02
-1.599877E-01	-7.894870E-06	1.387900E+02
-1.600422E-01	-8.010068E-06	1.400100E+02
-1.600706E-01	-7.902549E-06	1.406300E+02
-1.600706E-01	-8.048467E-06	1.414100E+02
-1.600714E-01	-7.871830E-06	1.420100E+02
-1.596269E-01	-7.710554E-06	1.427200E+02
-1.596262E-01	-7.541598E-06	1.433000E+02
-1.600806E-01	-8.002387E-06	1.440400E+02
-1.601036E-01	-7.879510E-06	1.448400E+02
-1.600714E-01	-7.372642E-06	1.452900E+02
-1.600706E-01	-7.288163E-06	1.457300E+02
-1.600683E-01	-7.349602E-06	1.461800E+02
-1.600691E-01	-7.295843E-06	1.466200E+02
-1.600706E-01	-7.272804E-06	1.470700E+02
-1.600706E-01	-7.318883E-06	1.475100E+02
-1.600721E-01	-7.303523E-06	1.479600E+02
-1.600698E-01	-7.226725E-06	1.483900E+02
-1.600706E-01	-7.188326E-06	1.488400E+02
-1.547519E-01	-4.221100E-06	1.498100E+02
-1.608766E-01	-7.948630E-06	1.503900E+02
-1.597060E-01	-7.380322E-06	1.509500E+02
-1.598380E-01	-7.856472E-06	1.518400E+02
-1.609165E-01	-7.518559E-06	1.524100E+02
-1.596185E-01	-7.718234E-06	1.532200E+02
-1.601097E-01	-7.626076E-06	1.540100E+02
-1.600706E-01	-7.280484E-06	1.544600E+02
-1.600683E-01	-7.172966E-06	1.549100E+02
-1.600691E-01	-7.103848E-06	1.553400E+02
-1.600691E-01	-7.196005E-06	1.557800E+02
-1.600691E-01	-7.142247E-06	1.562300E+02
-1.604644E-01	-7.641436E-06	1.568000E+02
-1.608597E-01	-7.987029E-06	1.574300E+02
-1.610201E-01	-8.094546E-06	1.580300E+02
-1.598557E-01	-7.956309E-06	1.586400E+02
-1.600714E-01	-8.002387E-06	1.595300E+02
-1.600691E-01	-7.303523E-06	1.604100E+02
-1.600706E-01	-7.311203E-06	1.608600E+02
-1.600721E-01	-7.219045E-06	1.613000E+02
-1.600721E-01	-7.180646E-06	1.617400E+02
-1.600714E-01	-7.188326E-06	1.621900E+02
-1.600698E-01	-7.257444E-06	1.626300E+02
-1.608351E-01	-8.217423E-06	1.631800E+02
-1.595824E-01	-7.503199E-06	1.637100E+02
-1.599148E-01	-7.979348E-06	1.643800E+02
-1.597336E-01	-7.687515E-06	1.648900E+02
-1.549124E-01	-4.197289E-06	1.654100E+02
-1.596200E-01	-7.741274E-06	1.662300E+02
-1.600629E-01	-7.349602E-06	1.666600E+02
-1.600714E-01	-7.334243E-06	1.671100E+02
-1.600706E-01	-7.280484E-06	1.675500E+02
-1.608259E-01	-7.856471E-06	1.682000E+02
-1.611000E-01	-8.240463E-06	1.689300E+02
-1.600729E-01	-7.533919E-06	1.699700E+02
-1.595018E-01	-7.480160E-06	1.705600E+02
-1.600645E-01	-7.142247E-06	1.710100E+02
-1.600706E-01	-7.265124E-06	1.714400E+02
-1.600714E-01	-7.196005E-06	1.718900E+02
-1.607530E-01	-7.595357E-06	1.724900E+02
-1.599094E-01	-7.756634E-06	1.731500E+02
-1.611829E-01	-8.286542E-06	1.738700E+02
-1.596607E-01	-7.341922E-06	1.744100E+02
-1.595087E-01	-7.679835E-06	1.752800E+02
-1.600622E-01	-7.441760E-06	1.757200E+02
-1.600714E-01	-7.196005E-06	1.761600E+02
-1.600729E-01	-7.288163E-06	1.766000E+02
-1.608229E-01	-8.017748E-06	1.773200E+02
-1.598327E-01	-7.503199E-06	1.778400E+02
-1.610094E-01	-7.603037E-06	1.786300E+02
-1.549262E-01	-4.049577E-05	1.791500E+02
-1.598058E-01	-7.526239E-06	1.800500E+02
-1.600668E-01	-7.334243E-06	1.804900E+02
-1.600706E-01	-7.280484E-06	1.809400E+02
-1.600745E-01	-7.180646E-06	1.813700E+02
-1.608182E-01	-7.787352E-06	1.820800E+02
-1.609656E-01	-7.649116E-06	1.826600E+02
-1.598641E-01	-7.341922E-06	1.832600E+02
-1.597022E-01	-7.595357E-06	1.840400E+02
-1.600852E-01	-7.564638E-06	1.847500E+02
-1.600691E-01	-7.042409E-06	1.852000E+02
-1.600698E-01	-7.111527E-06	1.856400E+02
-1.600698E-01	-7.057768E-06	1.860900E+02
-1.600691E-01	-7.226725E-06	1.865200E+02
-1.600683E-01	-7.180646E-06	1.869700E+02
-1.607852E-01	-7.702874E-06	1.875500E+02
-1.608505E-01	-7.710554E-06	1.881300E+02
-1.610071E-01	-7.894870E-06	1.887300E+02
-1.600215E-01	-7.748954E-06	1.895800E+02
-1.598457E-01	-8.255822E-06	1.907900E+02
-1.597705E-01	-7.987028E-06	1.915900E+02
-1.600675E-01	-7.395681E-06	1.920400E+02
-1.600714E-01	-7.272803E-06	1.924800E+02
-1.600698E-01	-7.211365E-06	1.929200E+02
-1.600698E-01	-7.203685E-06	1.933600E+02
-1.600706E-01	-7.196005E-06	1.938000E+02
-1.600706E-01	-7.157606E-06	1.942500E+02
-1.600714E-01	-7.242084E-06	1.946900E+02
-1.600698E-01	-7.172966E-06	1.951400E+02
-1.606110E-01	-7.910229E-06	1.957500E+02
-1.606287E-01	-7.741274E-06	1.963200E+02
-1.607599E-01	-7.948629E-06	1.968700E+02
-1.599386E-01	-8.148305E-06	1.976800E+02
-1.609833E-01	-8.255822E-06	1.983500E+02
-1.599079E-01	-7.718234E-06	1.992300E+02
-1.600698E-01	-7.579998E-06	2.003900E+02
-1.600261E-01	-7.679835E-06	2.010700E+02
-1.595847E-01	-7.610717E-06	2.016600E+02
-1.600622E-01	-7.395681E-06	2.021100E+02
-1.600706E-01	-7.349602E-06	2.025400E+02
-1.600698E-01	-7.318883E-06	2.029900E+02
-1.600706E-01	-7.119207E-06	2.034300E+02
-1.600691E-01	-7.096168E-06	2.038800E+02
-1.600706E-01	-7.111527E-06	2.043200E+02
-1.604598E-01	-7.564638E-06	2.048600E+02
-1.608804E-01	-8.117585E-06	2.055400E+02
-1.608743E-01	-7.748954E-06	2.061000E+02
-1.598587E-01	-8.017748E-06	2.067800E+02
-1.549377E-01	-4.295607E-06	2.073100E+02
-1.596008E-01	-7.641436E-06	2.081500E+02
-1.596699E-01	-7.618396E-06	2.088800E+02
-1.600660E-01	-7.341922E-06	2.093300E+02
-1.600698E-01	-7.172966E-06	2.102200E+02
-1.600721E-01	-7.180645E-06	2.106600E+02
-1.600706E-01	-7.103848E-06	2.111100E+02
-1.604467E-01	-7.564638E-06	2.116500E+02
-1.591678E-01	-7.633756E-06	2.123400E+02
-1.611353E-01	-8.040787E-06	2.133700E+02
-1.599393E-01	-7.910229E-06	2.139200E+02
-1.596331E-01	-7.764314E-06	2.147000E+02
-1.601121E-01	-7.879510E-06	2.152900E+02
-1.600698E-01	-7.341922E-06	2.157300E+02
-1.600691E-01	-7.196005E-06	2.161800E+02
-1.600691E-01	-7.242084E-06	2.166200E+02
-1.600698E-01	-7.073128E-06	2.170600E+02
-1.607000E-01	-8.017748E-06	2.176600E+02
-1.607906E-01	-7.687515E-06	2.182200E+02
-1.598787E-01	-7.641436E-06	2.191000E+02
-1.600560E-01	-7.341922E-06	2.201000E+02
-1.600706E-01	-7.672155E-06	2.209600E+02
-1.600691E-01	-7.188326E-06	2.214100E+02
-1.600683E-01	-7.126886E-06	2.218600E+02
-1.600714E-01	-7.211365E-06	2.223000E+02
-1.600698E-01	-7.257444E-06	2.227400E+02
-1.600683E-01	-7.219045E-06	2.231900E+02
-1.600698E-01	-7.203685E-06	2.236200E+02
-1.606816E-01	-7.818071E-06	2.242100E+02
-1.599317E-01	-7.748954E-06	2.247900E+02
-1.598940E-01	-7.948629E-06	2.255400E+02
-1.597712E-01	-7.818071E-06	2.261700E+02
-1.600698E-01	-7.672155E-06	2.268000E+02
-1.600691E-01	-7.656796E-06	2.273700E+02
-1.600706E-01	-7.234405E-06	2.278100E+02
-1.600706E-01	-7.180646E-06	2.282600E+02
-1.600706E-01	-6.957931E-06	2.287000E+02
-1.605573E-01	-7.395681E-06	2.297800E+02
-1.603776E-01	-8.970047E-06	2.303000E+02
-1.606709E-01	-7.318883E-06	2.308700E+02
-1.598396E-01	-8.071506E-06	2.317400E+02
-1.608497E-01	-6.842733E-06	2.323200E+02
-1.600222E-01	-7.695195E-06	2.329500E+02
-1.600706E-01	-7.526239E-06	2.336400E+02
-1.595586E-01	-7.672155E-06	2.342700E+02
-1.600622E-01	-7.457120E-06	2.347100E+02
-1.600691E-01	-7.318883E-06	2.351600E+02
-1.600691E-01	-7.126886E-06	2.356000E+02
-1.600683E-01	-7.088488E-06	2.360500E+02
-1.600706E-01	-7.096168E-06	2.364900E+02
-1.600683E-01	-7.096168E-06	2.369400E+02
-1.606379E-01	-7.388001E-06	2.375900E+02
-1.609595E-01	-8.071506E-06	2.381200E+02
-1.607898E-01	-7.994709E-06	2.389000E+02
-1.598587E-01	-7.441760E-06	2.395200E+02
-1.610508E-01	-8.071506E-06	2.407000E+02
-1.600737E-01	-7.541598E-06	2.415400E+02
-1.600706E-01	-7.080808E-06	2.419900E+02
-1.600706E-01	-7.096168E-06	2.424200E+02
-1.600698E-01	-7.057769E-06	2.428700E+02
-1.600683E-01	-6.996330E-06	2.433100E+02
-1.600691E-01	-7.096168E-06	2.437500E+02
-1.600683E-01	-7.057769E-06	2.442000E+02
-1.600683E-01	-6.980970E-06	2.446400E+02
-1.590910E-01	-6.719856E-06	2.452000E+02
-1.609242E-01	-7.833431E-06	2.463700E+02
-1.597712E-01	-7.411041E-06	2.470700E+02
-1.597835E-01	-7.411041E-06	2.476800E+02
-1.597359E-01	-7.434081E-06	2.483000E+02
-1.600714E-01	-7.679835E-06	2.489700E+02
-1.600698E-01	-7.265124E-06	2.498600E+02
-1.600706E-01	-7.172966E-06	2.503100E+02
-1.600714E-01	-7.203685E-06	2.507500E+02
-1.600706E-01	-7.180646E-06	2.512000E+02
-1.600706E-01	-7.042409E-06	2.516400E+02
-1.604306E-01	-9.039166E-06	2.525400E+02
-1.596807E-01	-7.718234E-06	2.531300E+02
-1.598672E-01	-7.403361E-06	2.538100E+02
-1.612051E-01	-8.171343E-06	2.543900E+02
-1.596530E-01	-7.587677E-06	2.551200E+02
-1.595893E-01	-7.503199E-06	2.557200E+02
-1.595886E-01	-7.487839E-06	2.563300E+02
-1.595678E-01	-7.549278E-06	2.569500E+02
-1.595556E-01	-7.641436E-06	2.576000E+02
-1.600745E-01	-7.464800E-06	2.582900E+02
-1.600721E-01	-7.718234E-06	2.588200E+02
-1.600721E-01	-7.587677E-06	2.598800E+02
-1.597106E-01	-7.464800E-06	2.605000E+02
-1.599524E-01	-7.925590E-06	2.611700E+02
-1.598104E-01	-7.725914E-06	2.618700E+02
-1.609817E-01	-7.672155E-06	2.624700E+02
-1.598948E-01	-1.041386E-05	2.630000E+02
-1.606056E-01	-7.464800E-06	2.635500E+02
-1.600745E-01	-7.119207E-06	2.640300E+02
-1.600698E-01	-7.088488E-06	2.644700E+02
-1.600706E-01	-7.080808E-06	2.649200E+02
-1.600706E-01	-7.165286E-06	2.653500E+02
-1.600706E-01	-6.980970E-06	2.657900E+02
-1.600691E-01	-7.034729E-06	2.662400E+02
-1.599018E-01	-1.706459E-05	2.667500E+02
-1.596646E-01	-7.556958E-06	2.673600E+02
-1.597490E-01	-7.388001E-06	2.679100E+02
-1.548740E-01	-3.858557E-06	2.684300E+02
-1.608605E-01	-7.641436E-06	2.689600E+02
-1.607292E-01	-7.610717E-06	2.700000E+02
-1.600790E-01	-7.042409E-06	2.704400E+02
-1.600706E-01	-6.965611E-06	2.708900E+02
-1.600706E-01	-6.965611E-06	2.713300E+02
-1.600691E-01	-6.996330E-06	2.717600E+02
-1.550743E-01	-3.910020E-06	2.722700E+02
-1.597298E-01	-7.226724E-06	2.728100E+02
-1.597620E-01	-7.833431E-06	2.736800E+02
-1.607983E-01	-7.787353E-06	2.743300E+02
-1.600790E-01	-7.142247E-06	2.747700E+02
-1.600691E-01	-7.196005E-06	2.752200E+02
-1.600691E-01	-6.957931E-06	2.756600E+02
-1.600683E-01	-6.996330E-06	2.761100E+02
-1.600691E-01	-7.472480E-06	2.766800E+02
-1.597582E-01	-7.288163E-06	2.772300E+02
-1.598196E-01	-7.864151E-06	2.778800E+02
-1.599225E-01	-7.541598E-06	2.784900E+02
-1.606317E-01	-7.541598E-06	2.791200E+02
-1.600691E-01	-7.111527E-06	2.800000E+02
-1.600698E-01	-7.080808E-06	2.804400E+02
-1.600691E-01	-6.988650E-06	2.808900E+02
-1.600729E-01	-7.472480E-06	2.815600E+02
-1.610355E-01	-7.556958E-06	2.821400E+02
-1.598611E-01	-7.533919E-06	2.826600E+02
-1.597313E-01	-7.464800E-06	2.833400E+02
-1.609426E-01	-8.317261E-06	2.838800E+02
-1.599716E-01	-7.518559E-06	2.844800E+02
-1.600675E-01	-7.126887E-06	2.849300E+02
-1.600691E-01	-7.019370E-06	2.853700E+02
-1.600691E-01	-7.126887E-06	2.858100E+02
-1.600683E-01	-7.096168E-06	2.862600E+02
-1.600683E-01	-6.996330E-06	2.867000E+02
-1.600721E-01	-7.234405E-06	2.872800E+02
-1.600698E-01	-7.610717E-06	2.878600E+02
-1.598603E-01	-7.702874E-06	2.884300E+02
-1.612358E-01	-9.822508E-06	2.889600E+02
-1.605158E-01	-7.579998E-06	2.899700E+02
-1.606847E-01	-7.994708E-06	2.905900E+02
-1.600775E-01	-7.226724E-06	2.910300E+02
-1.600698E-01	-7.265124E-06	2.914700E+02
-1.600706E-01	-7.165286E-06	2.919200E+02
-1.600698E-01	-7.065449E-06	2.923600E+02
-1.600675E-01	-6.996330E-06	2.928000E+02
-1.596239E-01	-7.226724E-06	2.933600E+02
-1.600668E-01	-7.526239E-06	2.939500E+02
-1.597805E-01	-7.434081E-06	2.947800E+02
-1.598488E-01	-7.556958E-06	2.955100E+02
-1.609211E-01	-7.748954E-06	2.963700E+02
-1.607937E-01	-7.871830E-06	2.969500E+02
-1.606517E-01	-7.610717E-06	2.975500E+02
-1.600775E-01	-7.111527E-06	2.980000E+02
-1.600691E-01	-7.149927E-06	2.984400E+02
-1.600675E-01	-7.042409E-06	2.988800E+02
-1.600683E-01	-6.919532E-06	2.997600E+02
-1.600683E-01	-6.842733E-06	3.002100E+02
-1.600691E-01	-6.904172E-06	3.006500E+02
-1.600952E-01	-7.556958E-06	3.012200E+02
-1.596761E-01	-7.318883E-06	3.017800E+02
-1.597689E-01	-7.341922E-06	3.025400E+02
-1.598979E-01	-7.434081E-06	3.031200E+02
-1.599509E-01	-7.395681E-06	3.036800E+02
-1.549584E-01	-4.105886E-06	3.042100E+02
-1.610224E-01	-7.894870E-06	3.047000E+02
-1.608474E-01	-7.633756E-06	3.052800E+02
-1.607945E-01	-7.695195E-06	3.058100E+02
-1.607177E-01	-7.487839E-06	3.063600E+02
-1.594949E-01	-7.326563E-06	3.070200E+02
-1.600614E-01	-7.065448E-06	3.074600E+02
-1.600691E-01	-7.034729E-06	3.079100E+02
-1.600691E-01	-6.973291E-06	3.083500E+02
-1.600698E-01	-7.073128E-06	3.087900E+02
-1.600691E-01	-6.988650E-06	3.096800E+02
-1.600698E-01	-7.011690E-06	3.101300E+02
-1.600714E-01	-6.973291E-06	3.105600E+02
-1.600706E-01	-6.973291E-06	3.110100E+02
-1.600898E-01	-7.549278E-06	3.115900E+02
-1.601811E-01	-7.426401E-06	3.122000E+02
-1.596930E-01	-7.249764E-06	3.128200E+02
-1.597682E-01	-7.411041E-06	3.133800E+02
-1.603992E-01	-7.649116E-06	3.140200E+02
-1.599018E-01	-7.434081E-06	3.146600E+02
-1.610301E-01	-7.710554E-06	3.152600E+02
-1.608090E-01	-7.787353E-06	3.160600E+02
-1.597659E-01	-7.449440E-06	3.166300E+02
-1.610056E-01	-8.163664E-06	3.172600E+02
-1.596983E-01	-7.733594E-06	3.179000E+02
-1.596999E-01	-7.618396E-06	3.185000E+02
-1.597950E-01	-7.526239E-06	3.190800E+02
-1.596431E-01	-7.626076E-06	3.200900E+02
-1.596031E-01	-7.664476E-06	3.206300E+02
-1.599332E-01	-7.733594E-06	3.212500E+02
-1.599347E-01	-7.779673E-06	3.219000E+02
-1.607561E-01	-7.564638E-06	3.225500E+02
-1.609272E-01	-7.764314E-06	3.231400E+02
-1.610539E-01	-9.469236E-06	3.236600E+02
-1.597789E-01	-7.203685E-06	3.242300E+02
-1.609787E-01	-7.641436E-06	3.247900E+02
-1.596960E-01	-7.080808E-06	3.254400E+02
-1.597735E-01	-7.088488E-06	3.260500E+02
-1.599086E-01	-6.965611E-06	3.266700E+02
-1.610347E-01	-7.503199E-06	3.272200E+02
-1.609886E-01	-7.372642E-06	3.277600E+02
-1.598311E-01	-7.226725E-06	3.283300E+02
-1.598465E-01	-7.380322E-06	3.289100E+02
-1.611053E-01	-7.702874E-06	3.299400E+02
-1.598772E-01	-8.017748E-06	3.305500E+02
-1.599048E-01	-7.126886E-06	3.311400E+02
-1.603792E-01	-7.372642E-06	3.316800E+02
-1.600199E-01	-7.080808E-06	3.323800E+02
-1.597559E-01	-8.040787E-06	3.329300E+02
-1.599869E-01	-7.311203E-06	3.335600E+02
-1.596630E-01	-7.119207E-06	3.341500E+02
-1.600683E-01	-7.126886E-06	3.346800E+02
-1.600875E-01	-7.149927E-06	3.352900E+02
-1.601197E-01	-5.253008E-06	3.358300E+02
-1.601174E-01	-7.149927E-06	3.364400E+02
-1.600714E-01	-7.280484E-06	3.370200E+02
-1.600691E-01	-6.950251E-06	3.374600E+02
-1.600675E-01	-7.011690E-06	3.379100E+02
-1.600691E-01	-7.042409E-06	3.383500E+02
-1.600698E-01	-7.019370E-06	3.387800E+02
-1.600698E-01	-6.965611E-06	3.396700E+02
-1.600698E-01	-6.973291E-06	3.401200E+02
-1.600714E-01	-6.980970E-06	3.405600E+02
-1.604030E-01	-7.142247E-06	3.411300E+02
-1.604744E-01	-7.157606E-06	3.416800E+02
-1.608866E-01	-7.541598E-06	3.422900E+02
-1.597198E-01	-7.334243E-06	3.429000E+02
-1.604721E-01	-7.595357E-06	3.435100E+02
-1.600130E-01	-7.395681E-06	3.441700E+02
-1.600714E-01	-7.418721E-06	3.447600E+02
-1.602141E-01	-5.852035E-06	3.453200E+02
-1.600698E-01	-6.804334E-06	3.457600E+02
-1.600691E-01	-6.850413E-06	3.462100E+02
-1.600698E-01	-6.965611E-06	3.466500E+02
-1.600691E-01	-6.919532E-06	3.471000E+02
-1.600698E-01	-7.011690E-06	3.475400E+02
-1.605872E-01	-7.764314E-06	3.480900E+02
-1.596968E-01	-7.403361E-06	3.486400E+02
-1.597643E-01	-7.149927E-06	3.492300E+02
-1.600668E-01	-7.326563E-06	3.502200E+02
-1.600299E-01	-7.879510E-06	3.507800E+02
-1.600982E-01	-7.418721E-06	3.513300E+02
-1.600683E-01	-7.111527E-06	3.517700E+02
-1.600683E-01	-7.019370E-06	3.522200E+02
-1.600683E-01	-7.103848E-06	3.526600E+02
-1.600691E-01	-7.065449E-06	3.531100E+02
-1.596031E-01	-7.180646E-06	3.536700E+02
-1.599271E-01	-7.733594E-06	3.542600E+02
-1.597643E-01	-7.242084E-06	3.547800E+02
-1.599232E-01	-7.411041E-06	3.553300E+02
-1.600698E-01	-7.272804E-06	3.558700E+02
-1.601013E-01	-7.211365E-06	3.564200E+02
-1.600706E-01	-6.911852E-06	3.568700E+02
-1.600683E-01	-6.973291E-06	3.573100E+02
-1.600698E-01	-7.065449E-06	3.577400E+02
-1.598618E-01	-1.062121E-05	3.582700E+02
-1.596008E-01	-6.973291E-06	3.588600E+02
-1.603454E-01	-7.503199E-06	3.599000E+02
-1.596269E-01	-7.272803E-06	3.605100E+02
-1.601896E-01	-5.974912E-06	3.610700E+02
-1.600721E-01	-6.873453E-06	3.615100E+02
-1.600714E-01	-6.888812E-06	3.619600E+02
-1.600706E-01	-6.996330E-06	3.624000E+02
-1.600606E-01	-7.242084E-06	3.629200E+02
-1.599524E-01	-7.434081E-06	3.635000E+02
-1.598027E-01	-7.211365E-06	3.640700E+02
-1.604705E-01	-6.220667E-06	3.646200E+02
-1.600721E-01	-7.388001E-06	3.653100E+02
-1.595410E-01	-7.303523E-06	3.658400E+02
-1.600622E-01	-7.165286E-06	3.662800E+02
-1.600691E-01	-7.172966E-06	3.667200E+02
-1.600698E-01	-7.149927E-06	3.671700E+02
-1.600706E-01	-7.004010E-06	3.676100E+02
-1.595763E-01	-7.595357E-06	3.681700E+02
-1.595517E-01	-7.265124E-06	3.687400E+02
-1.596745E-01	-7.211365E-06	3.692900E+02
-1.604337E-01	-7.710554E-06	3.702900E+02
-1.603492E-01	-7.533919E-06	3.708500E+02
-1.601696E-01	-7.011689E-06	3.714400E+02
-1.600284E-01	-5.014932E-06	3.719700E+02
-1.600698E-01	-7.073128E-06	3.724100E+02
-1.600714E-01	-7.004010E-06	3.728600E+02
-1.600698E-01	-7.126886E-06	3.733000E+02
-1.600698E-01	-7.119207E-06	3.737400E+02
-1.600706E-01	-7.057768E-06	3.741900E+02
-1.607377E-01	-7.702874E-06	3.747900E+02
-1.610424E-01	-8.877889E-06	3.753200E+02
-1.597620E-01	-7.257444E-06	3.760100E+02
-1.605266E-01	-7.626076E-06	3.765900E+02
-1.600138E-01	-7.388001E-06	3.771400E+02
-1.602840E-01	-5.882754E-06	3.776900E+02
-1.601159E-01	-7.265124E-06	3.782600E+02
-1.600706E-01	-7.364962E-06	3.788600E+02
-1.600683E-01	-7.057769E-06	3.797400E+02
-1.600706E-01	-7.050089E-06	3.801900E+02
-1.595747E-01	-6.911852E-06	3.807400E+02
-1.609096E-01	-7.518559E-06	3.817800E+02
-1.598818E-01	-7.103848E-06	3.823200E+02
-1.599678E-01	-7.157606E-06	3.828900E+02
-1.599877E-01	-7.411041E-06	3.834200E+02
-1.597122E-01	-7.472480E-06	3.839700E+02
-1.596400E-01	-7.219046E-06	3.845200E+02
-1.601098E-01	-7.526239E-06	3.851200E+02
-1.600706E-01	-7.165286E-06	3.855600E+02
-1.600683E-01	-7.073128E-06	3.860100E+02
-1.600691E-01	-7.096168E-06	3.864400E+02
-1.600706E-01	-6.980970E-06	3.868900E+02
-1.606732E-01	-7.172966E-06	3.874200E+02
-1.599524E-01	-7.633756E-06	3.879800E+02
-1.596745E-01	-7.326563E-06	3.885400E+02
-1.605580E-01	-7.748954E-06	3.890900E+02
-1.596830E-01	-7.380322E-06	3.900900E+02
-1.604782E-01	-5.775236E-06	3.906300E+02
-1.600768E-01	-7.088488E-06	3.910800E+02
-1.600706E-01	-6.888812E-06	3.915200E+02
-1.600706E-01	-6.896492E-06	3.919700E+02
-1.600706E-01	-7.103848E-06	3.924100E+02
-1.592215E-01	-6.934891E-06	3.929500E+02
-1.605104E-01	-7.633756E-06	3.940000E+02
-1.598726E-01	-6.888812E-06	3.945200E+02
-1.600714E-01	-7.326562E-06	3.950700E+02
-1.600860E-01	-7.633756E-06	3.956100E+02
-1.600698E-01	-7.096168E-06	3.960600E+02
-1.600675E-01	-7.050089E-06	3.965000E+02
-1.600675E-01	-7.004010E-06	3.969500E+02
-1.600698E-01	-7.011689E-06	3.973800E+02
-1.594941E-01	-6.980970E-06	3.979400E+02
-1.599125E-01	-7.249764E-06	3.985700E+02
-1.597812E-01	-7.196005E-06	3.991400E+02
-1.599516E-01	-7.364962E-06	4.002600E+02
-1.600729E-01	-7.272803E-06	4.008300E+02
-1.604974E-01	-7.702874E-06	4.014200E+02
-1.600760E-01	-7.073128E-06	4.018700E+02
-1.600706E-01	-6.980970E-06	4.023100E+02
-1.600706E-01	-6.873453E-06	4.027400E+02
-1.600714E-01	-6.942571E-06	4.031900E+02
-1.600691E-01	-6.881132E-06	4.036300E+02
-1.600691E-01	-6.865773E-06	4.040800E+02
-1.595977E-01	-7.364962E-06	4.046400E+02
-1.599317E-01	-8.109905E-06	4.057200E+02
-1.596177E-01	-7.180646E-06	4.063100E+02
-1.609188E-01	-7.472480E-06	4.069100E+02
-1.607522E-01	-7.073128E-06	4.074900E+02
-1.599125E-01	-8.209743E-06	4.082000E+02
-1.597751E-01	-7.249764E-06	4.088000E+02
-1.598380E-01	-7.388001E-06	4.098800E+02
-1.605173E-01	-7.449440E-06	4.104600E+02
-1.597927E-01	-7.134567E-06	4.110300E+02
-1.604805E-01	-7.280484E-06	4.117100E+02
-1.598373E-01	-7.165286E-06	4.123300E+02
-1.597843E-01	-7.349602E-06	4.128800E+02
-1.597828E-01	-7.610717E-06	4.134900E+02
-1.598741E-01	-8.440138E-06	4.141800E+02
-1.610255E-01	-7.495519E-06	4.147400E+02
-1.610447E-01	-7.257444E-06	4.154900E+02
-1.597682E-01	-7.073128E-06	4.160600E+02
-1.612020E-01	-5.928833E-06	4.165900E+02
-1.597214E-01	-7.211365E-06	4.171900E+02
-1.597237E-01	-7.311203E-06	4.179400E+02
-1.598756E-01	-8.002387E-06	4.184900E+02
-1.610355E-01	-8.017748E-06	4.190200E+02
-1.597336E-01	-7.334243E-06	4.200500E+02
-1.608950E-01	-7.510879E-06	4.207100E+02
-1.598311E-01	-7.318883E-06	4.212900E+02
-1.609073E-01	-7.257444E-06	4.218400E+02
-1.598902E-01	-8.301901E-06	4.224500E+02
-1.609196E-01	-7.211365E-06	4.231100E+02
-1.605673E-01	-5.928833E-06	4.237600E+02
-1.611383E-01	-5.460363E-06	4.243200E+02
-1.599501E-01	-7.257444E-06	4.248800E+02
-1.599056E-01	-7.656796E-06	4.255300E+02
-1.605281E-01	-5.905793E-06	4.260900E+02
-1.597973E-01	-7.457120E-06	4.266300E+02
-1.609710E-01	-7.088488E-06	4.272600E+02
-1.598019E-01	-6.781294E-06	4.277900E+02
-1.598795E-01	-7.533919E-06	4.283800E+02
-1.605373E-01	-5.767556E-06	4.290400E+02
-1.604905E-01	-5.997952E-06	4.300900E+02
-1.599593E-01	-7.257444E-06	4.307800E+02
-1.598557E-01	-7.311203E-06	4.313400E+02
-1.604344E-01	-7.748954E-06	4.319000E+02
-1.600698E-01	-7.510879E-06	4.324800E+02
-1.603377E-01	-5.506442E-06	4.330700E+02
-1.596384E-01	-7.096168E-06	4.336200E+02
-1.600806E-01	-7.272804E-06	4.342000E+02
-1.601366E-01	-7.234405E-06	4.348200E+02
-1.601113E-01	-7.272804E-06	4.353900E+02
-1.600706E-01	-7.011690E-06	4.358400E+02
-1.600698E-01	-7.011690E-06	4.362800E+02
-1.600698E-01	-7.034729E-06	4.367200E+02
-1.600706E-01	-7.057769E-06	4.371700E+02
-1.600683E-01	-6.973291E-06	4.376100E+02
-1.600683E-01	-7.004010E-06	4.380500E+02
-1.600698E-01	-7.011690E-06	4.384900E+02
-1.600706E-01	-7.088488E-06	4.389400E+02
-1.605511E-01	-7.572318E-06	4.399600E+02
-1.604375E-01	-7.718234E-06	4.405000E+02
-1.604736E-01	-7.411041E-06	4.411100E+02
-1.599401E-01	-7.779673E-06	4.416500E+02
-1.608014E-01	-7.464800E-06	4.422000E+02
-1.599225E-01	-8.263502E-06	4.427400E+02
-1.599923E-01	-1.396194E-05	4.432800E+02
-1.607438E-01	-7.487839E-06	4.438600E+02
-1.597383E-01	-6.781294E-06	4.444800E+02
-1.597674E-01	-7.165286E-06	4.450500E+02
-1.604536E-01	-7.295843E-06	4.456100E+02
-1.598657E-01	-7.457120E-06	4.461800E+02
-1.600714E-01	-7.771993E-06	4.469000E+02
-1.595916E-01	-7.572318E-06	4.474700E+02
-1.600929E-01	-7.441760E-06	4.480700E+02
-1.600714E-01	-7.211365E-06	4.485100E+02
-1.600714E-01	-7.172966E-06	4.489500E+02
-1.600714E-01	-7.088488E-06	4.498300E+02
-1.600721E-01	-7.119207E-06	4.502800E+02
-1.594211E-01	-7.242084E-06	4.508100E+02
-1.603707E-01	-7.541598E-06	4.518300E+02
-1.606870E-01	-7.203685E-06	4.524000E+02
-1.599194E-01	-8.071506E-06	4.529500E+02
-1.599002E-01	-7.503199E-06	4.536100E+02
-1.598373E-01	-7.487839E-06	4.541900E+02
-1.611176E-01	-7.595357E-06	4.547600E+02
-1.599931E-01	-7.395681E-06	4.553800E+02
-1.600476E-01	-7.818071E-06	4.559700E+02
-1.602218E-01	-7.088488E-06	4.565500E+02
-1.600729E-01	-7.311203E-06	4.571000E+02
-1.600790E-01	-7.303523E-06	4.576500E+02
-1.595655E-01	-7.503199E-06	4.583100E+02
-1.600721E-01	-7.119207E-06	4.588500E+02
-1.595617E-01	-7.272803E-06	4.598400E+02
-1.595110E-01	-7.418721E-06	4.605000E+02
-1.600629E-01	-7.080808E-06	4.609500E+02
-1.600698E-01	-6.980970E-06	4.613900E+02
-1.600706E-01	-6.988650E-06	4.618400E+02
-1.600714E-01	-6.957931E-06	4.622800E+02
-1.600691E-01	-6.965611E-06	4.627200E+02
-1.600706E-01	-7.019370E-06	4.631700E+02
-1.600714E-01	-6.942571E-06	4.636100E+02
-1.600683E-01	-7.249764E-06	4.641900E+02
-1.601128E-01	-7.142247E-06	4.647500E+02
-1.600729E-01	-7.341922E-06	4.653000E+02
-1.600729E-01	-7.364962E-06	4.658300E+02
-1.599025E-01	-7.495519E-06	4.663600E+02
-1.600629E-01	-7.510879E-06	4.669700E+02
-1.603976E-01	-5.944193E-06	4.676000E+02
-1.605488E-01	-5.629319E-06	4.681300E+02
-1.597574E-01	-7.257444E-06	4.687100E+02
-1.596976E-01	-7.388001E-06	4.693800E+02
-1.599301E-01	-8.332620E-06	4.703900E+02
-1.595955E-01	-7.364962E-06	4.709500E+02
-1.605933E-01	-7.664476E-06	4.714800E+02
-1.599609E-01	-7.940949E-06	4.720300E+02
-1.596177E-01	-7.311203E-06	4.726000E+02
-1.600192E-01	-7.564638E-06	4.732000E+02
-1.600683E-01	-7.226725E-06	4.736400E+02
-1.600698E-01	-7.096168E-06	4.740900E+02
-1.595149E-01	-7.364962E-06	4.747500E+02
-1.600852E-01	-7.303523E-06	4.753000E+02
-1.600967E-01	-7.242084E-06	4.758500E+02
-1.602349E-01	-7.257444E-06	4.764000E+02
-1.600714E-01	-7.963989E-06	4.770100E+02
-1.604053E-01	-7.449440E-06	4.776000E+02
-1.598772E-01	-7.395681E-06	4.781500E+02
-1.610915E-01	-7.572318E-06	4.787200E+02
-1.597881E-01	-7.265124E-06	4.793600E+02
-1.596415E-01	-7.603037E-06	4.803900E+02
-1.594895E-01	-7.695195E-06	4.809500E+02
-1.596676E-01	-7.649116E-06	4.815000E+02
-1.599578E-01	-8.547656E-06	4.820900E+02
-1.599693E-01	-7.403361E-06	4.826300E+02
-1.605112E-01	-7.441760E-06	4.831800E+02
-1.600169E-01	-7.234405E-06	4.837500E+02
-1.600698E-01	-6.996330E-06	4.842000E+02
-1.600698E-01	-6.988650E-06	4.846400E+02
-1.600698E-01	-6.980970E-06	4.850900E+02
-1.600698E-01	-7.050089E-06	4.855300E+02
-1.600691E-01	-7.080808E-06	4.859800E+02
-1.600622E-01	-4.385186E-06	4.865000E+02
-1.595064E-01	-7.180646E-06	4.871100E+02
-1.601059E-01	-7.380322E-06	4.877700E+02
-1.602541E-01	-7.065449E-06	4.883500E+02
-1.597482E-01	-7.065449E-06	4.889200E+02
-1.612044E-01	-7.426401E-06	4.899000E+02
-1.599639E-01	-7.242084E-06	4.905300E+02
-1.598357E-01	-7.533919E-06	4.911400E+02
-1.597252E-01	-7.510879E-06	4.917100E+02
-1.599140E-01	-7.242084E-06	4.923100E+02
-1.608942E-01	-7.626076E-06	4.929400E+02
-1.595863E-01	-7.311203E-06	4.935200E+02
-1.599593E-01	-7.748954E-06	4.941000E+02
-1.606241E-01	-7.695195E-06	4.946400E+02
-1.599831E-01	-7.257444E-06	4.952000E+02
-1.600698E-01	-7.134566E-06	4.956400E+02
-1.600698E-01	-7.119207E-06	4.960900E+02
-1.600698E-01	-7.011689E-06	4.965300E+02
-1.600683E-01	-6.904172E-06	4.969800E+02
-1.600691E-01	-6.881132E-06	4.974200E+02
-1.595325E-01	-7.649116E-06	4.979900E+02
-1.595970E-01	-7.649116E-06	4.985600E+02
-1.599731E-01	-7.572318E-06	4.991100E+02
-1.599731E-01	-7.380322E-06	5.001500E+02
-1.605043E-01	-7.526239E-06	5.007000E+02
-1.596930E-01	-7.280484E-06	5.012400E+02
-1.607922E-01	-7.664476E-06	5.018200E+02
-1.590527E-01	-6.543220E-06	5.023600E+02
-1.600683E-01	-7.134567E-06	5.032900E+02
-1.600683E-01	-6.911852E-06	5.037200E+02
-1.600691E-01	-7.027049E-06	5.042000E+02
-1.601428E-01	-7.380322E-06	5.047700E+02
-1.596369E-01	-7.234405E-06	5.053400E+02
-1.597851E-01	-7.963989E-06	5.059200E+02
-1.609288E-01	-6.827373E-06	5.065000E+02
-1.597928E-01	-7.249764E-06	5.071700E+02
-1.599393E-01	-7.211365E-06	5.077000E+02
-1.594979E-01	-7.242084E-06	5.082500E+02
-1.600637E-01	-6.896492E-06	5.087300E+02
-1.601405E-01	-7.564638E-06	5.098100E+02
-1.602188E-01	-7.272803E-06	5.103900E+02
-1.599217E-01	-7.311203E-06	5.109800E+02
-1.597045E-01	-7.495519E-06	5.115400E+02
-1.595602E-01	-7.096168E-06	5.121100E+02
-1.605273E-01	-7.126886E-06	5.126500E+02
-1.600768E-01	-6.812013E-06	5.131000E+02
-1.600698E-01	-6.873453E-06	5.135400E+02
-1.601274E-01	-7.042409E-06	5.140900E+02
-1.600714E-01	-7.802712E-06	5.146700E+02
-1.598396E-01	-7.679835E-06	5.152400E+02
-1.609679E-01	-7.779673E-06	5.157900E+02
-1.595471E-01	-7.388001E-06	5.164400E+02
-1.599808E-01	-7.172966E-06	5.170000E+02
-1.600698E-01	-7.103848E-06	5.174400E+02
-1.600714E-01	-7.096168E-06	5.178900E+02
-1.600721E-01	-7.357282E-06	5.184600E+02
-1.600706E-01	-7.518559E-06	5.190100E+02
-1.611483E-01	-7.933269E-06	5.201700E+02
-1.596868E-01	-7.426401E-06	5.207900E+02
-1.595448E-01	-7.526239E-06	5.213700E+02
-1.606087E-01	-7.787352E-06	5.219700E+02
-1.600775E-01	-7.050089E-06	5.224100E+02
-1.600698E-01	-6.942571E-06	5.228600E+02
-1.600698E-01	-6.911852E-06	5.233000E+02
-1.600691E-01	-7.080808E-06	5.238800E+02
-1.600407E-01	-7.142247E-06	5.244600E+02
-1.598396E-01	-7.864151E-06	5.250100E+02
-1.598987E-01	-7.103848E-06	5.255400E+02
-1.597114E-01	-7.219045E-06	5.260800E+02
-1.608989E-01	-4.968854E-06	5.266800E+02
-1.605603E-01	-7.034729E-06	5.272600E+02
-1.605158E-01	-7.434081E-06	5.278100E+02
-1.603807E-01	-7.280484E-06	5.283800E+02
-1.600729E-01	-7.480160E-06	5.289400E+02
-1.596438E-01	-7.380322E-06	5.299700E+02
-1.600721E-01	-7.556958E-06	5.306000E+02
-1.599678E-01	-7.825752E-06	5.311500E+02
-1.599117E-01	-8.033107E-06	5.317100E+02
-1.598127E-01	-7.234405E-06	5.322400E+02
-1.597720E-01	-7.533919E-06	5.329000E+02
-1.596814E-01	-7.272803E-06	5.334800E+02
-1.609626E-01	-9.330999E-06	5.340200E+02
-1.606747E-01	-7.610717E-06	5.345400E+02
-1.592983E-01	-6.965611E-06	5.351100E+02
-1.600691E-01	-6.896492E-06	5.360400E+02
-1.600683E-01	-7.134567E-06	5.364800E+02
-1.600698E-01	-7.103848E-06	5.369300E+02
-1.600698E-01	-7.219045E-06	5.375800E+02
-1.600714E-01	-7.288163E-06	5.381800E+02
-1.600376E-01	-7.802711E-06	5.387600E+02
-1.605734E-01	-7.595357E-06	5.393700E+02
-1.597214E-01	-7.265124E-06	5.404100E+02
-1.595540E-01	-7.656796E-06	5.409600E+02
-1.604383E-01	-7.196005E-06	5.415100E+02
-1.591141E-01	-6.758255E-06	5.420900E+02
-1.600683E-01	-6.965611E-06	5.430200E+02
-1.600675E-01	-7.042409E-06	5.434500E+02
-1.600683E-01	-6.996330E-06	5.439000E+02
-1.600576E-01	-7.349602E-06	5.444500E+02
-1.600691E-01	-7.119207E-06	5.450100E+02
-1.600706E-01	-7.434081E-06	5.455400E+02
-1.600706E-01	-7.702874E-06	5.462200E+02
-1.599317E-01	-7.280484E-06	5.467600E+02
-1.612174E-01	-9.569074E-06	5.472900E+02
-1.597751E-01	-7.702874E-06	5.480700E+02
-1.609603E-01	-7.672155E-06	5.486400E+02
-1.608459E-01	-7.771993E-06	5.493200E+02
-1.590382E-01	-6.543220E-06	5.503100E+02
-1.602610E-01	-7.533919E-06	5.508700E+02
-1.604107E-01	-7.318883E-06	5.514700E+02
-1.600737E-01	-6.927211E-06	5.519100E+02
-1.600691E-01	-6.973291E-06	5.523500E+02
-1.600691E-01	-6.911852E-06	5.527900E+02
-1.595939E-01	-7.280484E-06	5.534300E+02
-1.601167E-01	-7.725914E-06	5.541200E+02
-1.596461E-01	-7.211365E-06	5.547300E+02
-1.601681E-01	-7.257444E-06	5.553500E+02
-1.596699E-01	-7.088488E-06	5.559400E+02
-1.600714E-01	-7.464800E-06	5.565700E+02
-1.603055E-01	-7.180646E-06	5.571100E+02
-1.600215E-01	-7.088488E-06	5.577400E+02
-1.604214E-01	-7.495519E-06	5.583000E+02
-1.604866E-01	-7.380322E-06	5.588800E+02
-1.597728E-01	-7.119207E-06	5.599200E+02
-1.597190E-01	-7.303523E-06	5.607700E+02
-1.598902E-01	-7.341922E-06	5.613100E+02
-1.609111E-01	-7.641436E-06	5.619500E+02
-1.608505E-01	-7.196005E-06	5.625500E+02
-1.607945E-01	-7.487839E-06	5.631500E+02
-1.595371E-01	-6.973291E-06	5.637800E+02
-1.605719E-01	-6.827373E-06	5.644000E+02
-1.606133E-01	-7.672155E-06	5.649600E+02
-1.593521E-01	-6.765934E-06	5.655000E+02
-1.600668E-01	-6.858093E-06	5.664400E+02
-1.600683E-01	-6.919532E-06	5.668900E+02
-1.600683E-01	-6.904172E-06	5.673200E+02
-1.600698E-01	-6.873453E-06	5.677600E+02
-1.600698E-01	-6.812013E-06	5.682100E+02
-1.600706E-01	-6.758255E-06	5.686500E+02
-1.600698E-01	-6.819693E-06	5.695300E+02
-1.600714E-01	-6.835053E-06	5.699700E+02
-1.600698E-01	-6.812013E-06	5.704100E+02
-1.600714E-01	-6.804334E-06	5.708600E+02
-1.600714E-01	-6.750575E-06	5.713000E+02
-1.600714E-01	-6.727535E-06	5.717300E+02
-1.600691E-01	-6.773614E-06	5.721800E+02
-1.600706E-01	-6.835053E-06	5.726200E+02
-1.600706E-01	-6.773614E-06	5.730700E+02
-1.600691E-01	-6.742895E-06	5.735100E+02
-1.600691E-01	-6.750575E-06	5.739600E+02
-1.600698E-01	-6.704496E-06	5.744000E+02
-1.600698E-01	-6.735215E-06	5.748500E+02
-1.600706E-01	-6.750575E-06	5.752900E+02
-1.600675E-01	-6.742895E-06	5.757200E+02
-1.600691E-01	-6.773614E-06	5.761700E+02
-1.600706E-01	-6.719855E-06	5.766100E+02
-1.600691E-01	-6.719855E-06	5.770600E+02
-1.600698E-01	-6.673776E-06	5.775000E+02
-1.600714E-01	-6.696816E-06	5.779500E+02
-1.600698E-01	-6.727535E-06	5.783900E+02
-1.600691E-01	-6.819694E-06	5.788200E+02
-1.600675E-01	-6.796654E-06	5.797100E+02
-1.600691E-01	-6.773615E-06	5.801600E+02
-1.600691E-01	-6.719856E-06	5.806000E+02
-1.600691E-01	-6.796654E-06	5.810500E+02
-1.600683E-01	-6.850413E-06	5.814900E+02
-1.600698E-01	-6.850413E-06	5.819400E+02
-1.600706E-01	-6.819694E-06	5.823700E+02
-1.605035E-01	-7.464800E-06	5.829000E+02
-1.600752E-01	-6.773615E-06	5.833500E+02
-1.600683E-01	-6.804334E-06	5.838100E+02
-1.600706E-01	-6.835053E-06	5.842600E+02
-1.600691E-01	-6.827373E-06	5.847000E+02
-1.605135E-01	-7.556958E-06	5.853100E+02
-1.599739E-01	-7.242084E-06	5.859700E+02
-1.604989E-01	-6.965611E-06	5.866300E+02
-1.603492E-01	-5.529481E-06	5.872800E+02
-1.606371E-01	-7.595357E-06	5.879500E+02
-1.606970E-01	-8.240463E-06	5.884900E+02
-1.594665E-01	-6.842733E-06	5.891200E+02
-1.599363E-01	-7.011690E-06	5.901000E+02
-1.603922E-01	-7.257444E-06	5.906500E+02
-1.607499E-01	-7.702874E-06	5.913100E+02
-1.604506E-01	-7.134567E-06	5.918700E+02
-1.607008E-01	-7.334243E-06	5.924200E+02
-1.594681E-01	-1.393122E-05	5.929700E+02
-1.599486E-01	-7.157606E-06	5.935100E+02
-1.604222E-01	-7.710554E-06	5.941500E+02
-1.603024E-01	-7.464800E-06	5.947800E+02
-1.591294E-01	-6.719856E-06	5.953900E+02
-1.600652E-01	-6.957931E-06	5.963100E+02
-1.592599E-01	-7.388001E-06	5.968700E+02
-1.600606E-01	-7.272803E-06	5.973500E+02
-1.600691E-01	-7.073128E-06	5.977900E+02
-1.600698E-01	-6.988650E-06	5.982400E+02
-1.600698E-01	-6.934891E-06	5.986800E+02
-1.600706E-01	-6.980970E-06	5.995600E+02
-1.600698E-01	-6.865773E-06	6.000100E+02
-1.600706E-01	-6.865773E-06	6.004500E+02
-1.595725E-01	-7.771993E-06	6.010200E+02
-1.595249E-01	-6.458742E-06	6.015500E+02
-1.601205E-01	-7.142247E-06	6.021800E+02
-1.600821E-01	-6.934891E-06	6.027200E+02
-1.600714E-01	-6.827373E-06	6.033300E+02
-1.602318E-01	-7.103848E-06	6.041600E+02
-1.597198E-01	-6.627698E-06	6.047000E+02
-1.599524E-01	-6.712175E-06	6.053500E+02
-1.600706E-01	-6.865773E-06	6.059200E+02
-1.599532E-01	-7.403361E-06	6.064700E+02
-1.603331E-01	-7.257444E-06	6.070200E+02
-1.603400E-01	-6.742895E-06	6.075600E+02
-1.600054E-01	-6.712175E-06	6.081500E+02
-1.599839E-01	-6.643058E-06	6.087000E+02
-1.609541E-01	-6.451062E-06	6.092700E+02
-1.599355E-01	-6.435702E-06	6.102600E+02
-1.604045E-01	-6.973291E-06	6.109900E+02
-1.604053E-01	-7.203685E-06	6.117200E+02
-1.601428E-01	-7.541598E-06	6.122500E+02
-1.603216E-01	-6.389623E-06	6.128000E+02
-1.600484E-01	-7.111527E-06	6.134300E+02
-1.603961E-01	-7.449440E-06	6.139700E+02
-1.603377E-01	-7.311203E-06	6.145000E+02
-1.596707E-01	-6.650737E-06	6.150700E+02
-1.600706E-01	-6.957931E-06	6.156100E+02
-1.600852E-01	-7.088488E-06	6.162400E+02
-1.601313E-01	-7.042409E-06	6.168200E+02
-1.600990E-01	-6.965611E-06	6.173900E+02
-1.600683E-01	-6.965611E-06	6.179000E+02
-1.601596E-01	-7.242084E-06	6.185300E+02
-1.600721E-01	-6.911852E-06	6.189700E+02
-1.600691E-01	-6.896492E-06	6.198700E+02
-1.600698E-01	-6.988650E-06	6.203000E+02
-1.600721E-01	-6.858093E-06	6.207400E+02
-1.600698E-01	-6.896492E-06	6.211900E+02
-1.599647E-01	-7.533919E-06	6.217900E+02
-1.595593E-01	-7.364962E-06	6.223700E+02
-1.596077E-01	-7.910229E-06	6.234200E+02
-1.610370E-01	-7.771993E-06	6.239700E+02
-1.598112E-01	-7.065449E-06	6.245200E+02
-1.604352E-01	-7.211365E-06	6.250700E+02
-1.600269E-01	-7.249764E-06	6.256200E+02
-1.603247E-01	-7.257444E-06	6.261700E+02
-1.601904E-01	-7.295843E-06	6.267100E+02
-1.601481E-01	-7.196005E-06	6.273300E+02
-1.600706E-01	-6.873453E-06	6.277700E+02
-1.600698E-01	-6.835053E-06	6.282200E+02
-1.600691E-01	-6.911852E-06	6.286500E+02
-1.599493E-01	-7.172966E-06	6.296600E+02
-1.596776E-01	-6.888812E-06	6.302400E+02
-1.598212E-01	-6.865773E-06	6.308400E+02
-1.604959E-01	-7.027049E-06	6.313700E+02
-1.600529E-01	-7.149927E-06	6.319200E+02
-1.601781E-01	-7.065449E-06	6.324700E+02
-1.601551E-01	-7.295843E-06	6.330000E+02
-1.600714E-01	-7.004010E-06	6.334400E+02
-1.600698E-01	-6.957931E-06	6.338900E+02
-1.603009E-01	-8.816451E-06	6.344000E+02
-1.599539E-01	-7.334243E-06	6.350100E+02
-1.607891E-01	-6.996330E-06	6.355900E+02
-1.604053E-01	-7.510879E-06	6.362100E+02
-1.600745E-01	-7.226725E-06	6.368500E+02
-1.601159E-01	-7.080808E-06	6.374000E+02
-1.600698E-01	-6.804334E-06	6.378500E+02
-1.600691E-01	-6.873453E-06	6.382900E+02
-1.603347E-01	-6.927211E-06	6.388700E+02
-1.609602E-01	-7.142247E-06	6.399400E+02
-1.607776E-01	-6.604658E-06	6.405900E+02
-1.600161E-01	-6.881132E-06	6.411700E+02
-1.601957E-01	-7.034729E-06	6.417200E+02
-1.601412E-01	-7.119207E-06	6.423100E+02
-1.600729E-01	-6.835053E-06	6.427500E+02
-1.603124E-01	-6.957931E-06	6.433100E+02
-1.599785E-01	-6.942571E-06	6.438700E+02
-1.608620E-01	-7.380322E-06	6.444700E+02
-1.598073E-01	-6.612338E-06	6.450400E+02
-1.597029E-01	-6.835053E-06	6.455700E+02
-1.600721E-01	-6.835053E-06	6.461200E+02
-1.595364E-01	-6.804334E-06	6.467200E+02
-1.600637E-01	-6.765934E-06	6.471700E+02
-1.600706E-01	-6.827373E-06	6.476100E+02
-1.600706E-01	-6.827373E-06	6.480600E+02
-1.599670E-01	-7.556958E-06	6.486400E+02
-1.607883E-01	-7.441760E-06	6.492300E+02
-1.605327E-01	-8.056147E-06	6.502100E+02
-1.597574E-01	-7.572318E-06	6.508900E+02
-1.596515E-01	-7.718234E-06	6.515900E+02
-1.600698E-01	-7.441760E-06	6.521200E+02
-1.600691E-01	-7.065449E-06	6.525600E+02
-1.599885E-01	-7.219045E-06	6.531100E+02
-1.594519E-01	-6.996330E-06	6.536700E+02
-1.609741E-01	-4.907415E-06	6.547100E+02
-1.605197E-01	-7.257444E-06	6.552600E+02
-1.603270E-01	-7.134567E-06	6.558200E+02
-1.596868E-01	-7.219045E-06	6.563700E+02
-1.600675E-01	-7.257444E-06	6.569100E+02
-1.600553E-01	-7.111527E-06	6.574800E+02
-1.600698E-01	-6.842733E-06	6.579200E+02
-1.599885E-01	-7.096168E-06	6.584600E+02
-1.607307E-01	-7.457120E-06	6.590800E+02
-1.597567E-01	-7.388001E-06	6.600700E+02
-1.605035E-01	-7.510879E-06	6.606300E+02
-1.600629E-01	-7.718234E-06	6.611700E+02
-1.596231E-01	-7.165286E-06	6.617100E+02
-1.594796E-01	-7.088488E-06	6.622700E+02
