CORRW ASCII
  CorrWare for Windows: Version 3.5f
  Potentiostatic	[-0.16 Ref,3600 Sec][default]	IV_-160mV_2.cor
  Date: 11-05-2019    Time: 18:07:13
   
   
  Open Circuit Potential (V): -0.0045
  Begin Information:          Cell Information
    Surface Area:             1
    Density:                  0
    Weight:                   0
    Polarity:                 0
    PolarityI:                0
    Corrosion Unit Type:      0
    Reference Type:           0
    Reference Potential:      0
    User-Defined Potential:   0
    Stern-Geary:              26
  End Information:            Cell Information
  Begin Pstat:                1287
    Pstat Title:              Instrument #1
    Booster Type:             0
    Booster Name:             None
    Current Range:            5
    Current Limit:            0
    Current LimitType:        1
    Sweep Type:               0
    Use Error Beep:           1
    Auxilary Type:            0
    iR Comp. Type:            0
    iR Ohms:                  0
    iR Time:                  27
    iR Ratio:                 255
    LP Filter Type:           2
    Drift Correction:         1
    Null Correction:          0
    Pstat Bandwidth Type:     2
    Gstat Bandwidth Type:     2
    External Input:           0
    SafetyMinV:               0
    SafetyMaxV:               10
    SafetyMinI:               0
    SafetyMaxI:               4
    SafetyMinQ:               0
    SafetyMaxQ:               1000
    SafetyMinT:               0
    SafetyMaxT:               50
    SafetyChT:                0
    SafetyMinVUse:            0
    SafetyMaxVUse:            0
    SafetyMinIUse:            0
    SafetyMaxIUse:            0
    SafetyMinQUse:            0
    SafetyMaxQUse:            0
    SafetyMinTUse:            0
    SafetyMaxTUse:            0
  End Pstat:                  1287
  Begin Experiment:           Potentiostatic	[-0.16 Ref,3600 Sec][default]	IV_-160mV_2.cor
    Data File:                Z:\191101_Amezawa\fr_XAS\TPB2\500C 100%O2\Electrochem\IV_-160mV_2.cor
    Data Append:              0
    Comment Lines:            0
    Potential:                -0.16
    Potential Type:           1
    Total Time:               3600
    Time Units:               0
    Time Marker:              -1
    Measure Rate Type:        1
    Measure Rate #1:          2000
    Measure Rate #2:          10
    Measure Rate #3:          0.1
    Measure Rate #4:          2
    Use Threshold:            0
    Threshold I_Min:          -15
    Threshold I_Max:          15
    Threshold Delta:          5
    Threshold Time:           60
    Copy AuxV:                0
    Axes Type:                1
    Use Custom Pstat:         0
  End Experiment:             Potentiostatic	[-0.16 Ref,3600 Sec][default]	IV_-160mV_2.cor
  Data Points:                842
  E(Volts)	I(A/cm2)	T(Seconds)
End Comments
-1.518619E-01	-1.066163E-05	0.000000E+00
-1.520945E-01	-7.649905E-06	8.900000E-01
-1.524253E-01	-7.192884E-06	1.340000E+00
-1.521874E-01	-6.786559E-06	1.800000E+00
-1.526426E-01	-6.838790E-06	2.240000E+00
-1.525727E-01	-6.578403E-06	2.680000E+00
-1.528214E-01	-6.341829E-06	4.250000E+00
-1.527362E-01	-6.248888E-06	5.260000E+00
-1.525290E-01	-6.088355E-06	6.260000E+00
-1.528115E-01	-6.058399E-06	6.710000E+00
-1.527293E-01	-6.066080E-06	7.140000E+00
-1.529097E-01	-5.988501E-06	7.590000E+00
-1.531761E-01	-6.008472E-06	8.020000E+00
-1.529489E-01	-6.019994E-06	8.470000E+00
-1.527646E-01	-5.974676E-06	8.900000E+00
-1.528567E-01	-6.005399E-06	9.350000E+00
-1.526119E-01	-5.837954E-06	1.023000E+01
-1.525344E-01	-5.699696E-06	1.068000E+01
-1.527462E-01	-5.788795E-06	1.225000E+01
-1.530717E-01	-5.884808E-06	1.270000E+01
-1.531154E-01	-5.738868E-06	1.325000E+01
-1.530732E-01	-5.625189E-06	1.370000E+01
-1.531561E-01	-5.749622E-06	1.413000E+01
-1.530425E-01	-5.601379E-06	1.458000E+01
-1.530118E-01	-5.490004E-06	1.501000E+01
-1.526917E-01	-5.487700E-06	1.547000E+01
-1.525651E-01	-5.630566E-06	1.590000E+01
-1.529274E-01	-5.613668E-06	1.635000E+01
-1.526103E-01	-5.530713E-06	1.685000E+01
-1.531047E-01	-5.714289E-06	1.786000E+01
-1.530264E-01	-5.615204E-06	1.831000E+01
-1.531500E-01	-5.530713E-06	1.875000E+01
-1.533818E-01	-5.671276E-06	1.918000E+01
-1.530310E-01	-5.499989E-06	2.007000E+01
-1.527846E-01	-5.517655E-06	2.076000E+01
-1.526756E-01	-5.563742E-06	2.120000E+01
-1.527370E-01	-5.493844E-06	2.164000E+01
-1.527946E-01	-5.574494E-06	2.208000E+01
-1.528790E-01	-5.605219E-06	2.253000E+01
-1.529611E-01	-5.524568E-06	2.296000E+01
-1.530701E-01	-5.544539E-06	2.341000E+01
-1.531707E-01	-5.544539E-06	2.384000E+01
-1.529419E-01	-5.488468E-06	2.428000E+01
-1.531753E-01	-5.374789E-06	2.472000E+01
-1.532329E-01	-5.420107E-06	2.516000E+01
-1.529826E-01	-5.548379E-06	2.560000E+01
-1.526925E-01	-5.266486E-06	2.605000E+01
-1.527009E-01	-5.446222E-06	2.650000E+01
-1.527170E-01	-5.303355E-06	2.694000E+01
-1.530509E-01	-5.449294E-06	2.845000E+01
-1.528590E-01	-5.313340E-06	2.946000E+01
-1.531093E-01	-5.367876E-06	3.046000E+01
-1.527784E-01	-5.334079E-06	3.091000E+01
-1.526549E-01	-5.342528E-06	3.135000E+01
-1.531231E-01	-5.456207E-06	3.179000E+01
-1.528982E-01	-5.304123E-06	3.223000E+01
-1.531354E-01	-5.328703E-06	3.267000E+01
-1.529711E-01	-5.360962E-06	3.311000E+01
-1.529212E-01	-5.324862E-06	3.355000E+01
-1.528491E-01	-5.228849E-06	3.399000E+01
-1.526679E-01	-5.244979E-06	3.446000E+01
-1.528498E-01	-5.379397E-06	3.490000E+01
-1.531047E-01	-5.217328E-06	3.665000E+01
-1.526779E-01	-5.249588E-06	3.864000E+01
-1.529489E-01	-5.251893E-06	3.966000E+01
-1.533050E-01	-5.201966E-06	4.066000E+01
-1.530962E-01	-5.243443E-06	4.111000E+01
-1.530594E-01	-5.287993E-06	4.155000E+01
-1.527646E-01	-5.258037E-06	4.199000E+01
-1.527731E-01	-5.243443E-06	4.243000E+01
-1.528675E-01	-5.274167E-06	4.288000E+01
-1.528744E-01	-5.191212E-06	4.333000E+01
-1.530878E-01	-5.212719E-06	4.376000E+01
-1.531814E-01	-5.166633E-06	4.436000E+01
-1.530609E-01	-5.203502E-06	4.536000E+01
-1.527892E-01	-5.133605E-06	4.581000E+01
-1.527117E-01	-5.102112E-06	4.624000E+01
-1.527953E-01	-5.129764E-06	4.669000E+01
-1.531415E-01	-5.201198E-06	4.725000E+01
-1.529780E-01	-5.190444E-06	4.826000E+01
-1.529059E-01	-5.168169E-06	4.871000E+01
-1.526787E-01	-5.078301E-06	4.914000E+01
-1.529327E-01	-5.185836E-06	5.002000E+01
-1.532636E-01	-5.066780E-06	5.047000E+01
-1.527769E-01	-5.017622E-06	5.090000E+01
-1.530364E-01	-5.085983E-06	5.135000E+01
-1.526456E-01	-4.957710E-06	5.178000E+01
-1.530126E-01	-5.211951E-06	5.222000E+01
-1.529719E-01	-5.191212E-06	5.266000E+01
-1.530893E-01	-5.166633E-06	5.309000E+01
-1.532904E-01	-5.138213E-06	5.354000E+01
-1.528514E-01	-5.062939E-06	5.398000E+01
-1.528544E-01	-5.016853E-06	5.442000E+01
-1.528007E-01	-5.136677E-06	5.486000E+01
-1.529258E-01	-5.112098E-06	5.530000E+01
-1.532213E-01	-5.138213E-06	5.574000E+01
-1.531193E-01	-5.042200E-06	5.617000E+01
-1.526748E-01	-4.911623E-06	5.662000E+01
-1.528629E-01	-5.033752E-06	5.705000E+01
-1.527731E-01	-5.195821E-06	5.750000E+01
-1.529627E-01	-5.092895E-06	5.793000E+01
-1.532121E-01	-5.144358E-06	5.838000E+01
-1.530225E-01	-5.007636E-06	5.882000E+01
-1.531162E-01	-5.106721E-06	5.925000E+01
-1.528514E-01	-5.022230E-06	6.013000E+01
-1.532636E-01	-5.207342E-06	6.059000E+01
-1.535499E-01	-5.170474E-06	6.103000E+01
-1.530310E-01	-4.979217E-06	6.147000E+01
-1.526948E-01	-4.869378E-06	6.205000E+01
-1.528115E-01	-5.018390E-06	6.306000E+01
-1.533020E-01	-5.098272E-06	6.350000E+01
-1.531431E-01	-5.092895E-06	6.394000E+01
-1.529657E-01	-4.986898E-06	6.439000E+01
-1.528997E-01	-4.991506E-06	6.482000E+01
-1.527877E-01	-4.946956E-06	6.525000E+01
-1.533027E-01	-5.107489E-06	6.570000E+01
-1.531876E-01	-5.032984E-06	6.614000E+01
-1.529957E-01	-5.072925E-06	6.659000E+01
-1.526648E-01	-4.851711E-06	6.703000E+01
-1.526856E-01	-4.926218E-06	6.865000E+01
-1.526909E-01	-4.871682E-06	6.910000E+01
-1.529965E-01	-5.138213E-06	6.999000E+01
-1.531438E-01	-5.003028E-06	7.044000E+01
-1.528897E-01	-4.892421E-06	7.088000E+01
-1.527700E-01	-4.855552E-06	7.133000E+01
-1.528982E-01	-5.039128E-06	7.185000E+01
-1.532091E-01	-5.048345E-06	7.287000E+01
-1.533587E-01	-5.032984E-06	7.487000E+01
-1.529926E-01	-4.937739E-06	7.532000E+01
-1.528590E-01	-4.888580E-06	7.576000E+01
-1.527186E-01	-4.864769E-06	7.619000E+01
-1.531692E-01	-4.958477E-06	7.664000E+01
-1.533948E-01	-5.020694E-06	7.708000E+01
-1.531868E-01	-4.928522E-06	7.753000E+01
-1.529427E-01	-4.770293E-06	7.796000E+01
-1.527401E-01	-4.824060E-06	7.841000E+01
-1.527792E-01	-4.908551E-06	7.884000E+01
-1.530218E-01	-5.018389E-06	7.928000E+01
-1.528721E-01	-4.956173E-06	8.017000E+01
-1.525988E-01	-4.721902E-06	8.061000E+01
-1.529159E-01	-5.058331E-06	8.105000E+01
-1.532528E-01	-4.977680E-06	8.149000E+01
-1.531830E-01	-5.044505E-06	8.193000E+01
-1.532144E-01	-4.832509E-06	8.237000E+01
-1.529389E-01	-4.837118E-06	8.280000E+01
-1.528314E-01	-4.850176E-06	8.324000E+01
-1.529412E-01	-4.887044E-06	8.369000E+01
-1.528667E-01	-4.867074E-06	8.412000E+01
-1.532789E-01	-5.021462E-06	8.457000E+01
-1.529512E-01	-4.784887E-06	8.500000E+01
-1.529443E-01	-4.744946E-06	8.545000E+01
-1.528844E-01	-4.844031E-06	8.588000E+01
-1.528982E-01	-4.885508E-06	8.633000E+01
-1.530724E-01	-4.996883E-06	8.676000E+01
-1.530479E-01	-4.869378E-06	8.720000E+01
-1.533472E-01	-4.943884E-06	8.764000E+01
-1.531438E-01	-4.932362E-06	8.808000E+01
-1.530486E-01	-4.854016E-06	8.853000E+01
-1.531239E-01	-4.896262E-06	8.896000E+01
-1.531131E-01	-4.909319E-06	8.941000E+01
-1.533119E-01	-4.953101E-06	9.029000E+01
-1.532114E-01	-4.907015E-06	9.074000E+01
-1.530502E-01	-4.857856E-06	9.118000E+01
-1.532682E-01	-4.930058E-06	9.277000E+01
-1.530617E-01	-4.843263E-06	9.379000E+01
-1.527669E-01	-4.805625E-06	9.476000E+01
-1.528859E-01	-4.872451E-06	9.521000E+01
-1.531860E-01	-4.913160E-06	9.565000E+01
-1.529519E-01	-4.882436E-06	9.609000E+01
-1.529320E-01	-4.867074E-06	9.654000E+01
-1.532336E-01	-4.964622E-06	9.697000E+01
-1.532935E-01	-4.892421E-06	9.742000E+01
-1.530149E-01	-4.774901E-06	9.785000E+01
-1.529680E-01	-4.737265E-06	9.830000E+01
-1.527823E-01	-4.753394E-06	9.873000E+01
-1.529811E-01	-4.861697E-06	9.917000E+01
-1.530555E-01	-4.890885E-06	1.000500E+02
-1.533357E-01	-4.815611E-06	1.005000E+02
-1.533964E-01	-4.922377E-06	1.009500E+02
-1.533442E-01	-4.795640E-06	1.014000E+02
-1.528775E-01	-4.813307E-06	1.018400E+02
-1.528214E-01	-4.784119E-06	1.023600E+02
-1.532782E-01	-4.966927E-06	1.033600E+02
-1.529942E-01	-4.784887E-06	1.038000E+02
-1.534017E-01	-4.854784E-06	1.042300E+02
-1.533787E-01	-4.893957E-06	1.046800E+02
-1.531323E-01	-4.748018E-06	1.051200E+02
-1.530394E-01	-4.701932E-06	1.055600E+02
-1.531193E-01	-4.748018E-06	1.060000E+02
-1.529657E-01	-4.733424E-06	1.077700E+02
-1.532551E-01	-4.835581E-06	1.087600E+02
-1.530233E-01	-4.727279E-06	1.097600E+02
-1.530064E-01	-4.665831E-06	1.106600E+02
-1.527232E-01	-4.674280E-06	1.111100E+02
-1.533741E-01	-4.877827E-06	1.127800E+02
-1.534194E-01	-4.754163E-06	1.132200E+02
-1.529151E-01	-4.744177E-06	1.137600E+02
-1.530080E-01	-4.627426E-06	1.142200E+02
-1.529419E-01	-4.691946E-06	1.146600E+02
-1.529657E-01	-4.771829E-06	1.151000E+02
-1.529274E-01	-4.808698E-06	1.155500E+02
-1.530210E-01	-4.688874E-06	1.159900E+02
-1.529941E-01	-4.774901E-06	1.164400E+02
-1.533887E-01	-4.890117E-06	1.169500E+02
-1.530847E-01	-4.724207E-06	1.179600E+02
-1.532221E-01	-4.734192E-06	1.184100E+02
-1.528330E-01	-4.648933E-06	1.188400E+02
-1.530026E-01	-4.700395E-06	1.192800E+02
-1.527462E-01	-4.711149E-06	1.201600E+02
-1.529220E-01	-4.675048E-06	1.206100E+02
-1.531876E-01	-4.654310E-06	1.210400E+02
-1.533541E-01	-4.766452E-06	1.214900E+02
-1.531668E-01	-4.618977E-06	1.219200E+02
-1.531415E-01	-4.765684E-06	1.223700E+02
-1.531999E-01	-4.814075E-06	1.228000E+02
-1.528506E-01	-4.690410E-06	1.232400E+02
-1.531699E-01	-4.784119E-06	1.236900E+02
-1.529611E-01	-4.731120E-06	1.241200E+02
-1.526894E-01	-4.613600E-06	1.245600E+02
-1.530678E-01	-4.891653E-06	1.250000E+02
-1.533311E-01	-4.781046E-06	1.254500E+02
-1.530886E-01	-4.853248E-06	1.258800E+02
-1.530993E-01	-4.610528E-06	1.263300E+02
-1.531745E-01	-4.758771E-06	1.267600E+02
-1.529389E-01	-4.569818E-06	1.272000E+02
-1.530540E-01	-4.676584E-06	1.276500E+02
-1.529059E-01	-4.692715E-06	1.280800E+02
-1.528683E-01	-4.622817E-06	1.285300E+02
-1.527938E-01	-4.608223E-06	1.289600E+02
-1.529174E-01	-4.817915E-06	1.294100E+02
-1.533710E-01	-4.864001E-06	1.302900E+02
-1.533557E-01	-4.841726E-06	1.307400E+02
-1.531799E-01	-4.741873E-06	1.311700E+02
-1.529972E-01	-4.632802E-06	1.316100E+02
-1.530778E-01	-4.553689E-06	1.320500E+02
-1.528391E-01	-4.601311E-06	1.325000E+02
-1.528222E-01	-4.583644E-06	1.329300E+02
-1.529028E-01	-4.778742E-06	1.333700E+02
-1.530271E-01	-4.757235E-06	1.338000E+02
-1.530341E-01	-4.758771E-06	1.342400E+02
-1.530932E-01	-4.866306E-06	1.346900E+02
-1.532866E-01	-4.788727E-06	1.351200E+02
-1.533265E-01	-4.750322E-06	1.355700E+02
-1.532674E-01	-4.745714E-06	1.360000E+02
-1.529419E-01	-4.589021E-06	1.364600E+02
-1.526679E-01	-4.632035E-06	1.368900E+02
-1.529020E-01	-4.651237E-06	1.373400E+02
-1.528375E-01	-4.640484E-06	1.378500E+02
-1.532482E-01	-3.976844E-06	1.388700E+02
-1.532375E-01	-4.761076E-06	1.393100E+02
-1.529350E-01	-4.658918E-06	1.401800E+02
-1.529826E-01	-4.632034E-06	1.406300E+02
-1.527285E-01	-4.633571E-06	1.410800E+02
-1.528859E-01	-4.781046E-06	1.415200E+02
-1.534209E-01	-4.913160E-06	1.419500E+02
-1.531976E-01	-4.669671E-06	1.425600E+02
-1.527723E-01	-4.644324E-06	1.435700E+02
-1.528230E-01	-4.674280E-06	1.440000E+02
-1.528659E-01	-4.665063E-06	1.444500E+02
-1.532989E-01	-4.758771E-06	1.448900E+02
-1.533403E-01	-4.659686E-06	1.453400E+02
-1.532935E-01	-4.671208E-06	1.457700E+02
-1.529036E-01	-4.525269E-06	1.462000E+02
-1.528775E-01	-4.602079E-06	1.466500E+02
-1.531262E-01	-4.756467E-06	1.470900E+02
-1.531001E-01	-4.658918E-06	1.475400E+02
-1.531876E-01	-4.686570E-06	1.479700E+02
-1.532551E-01	-4.686570E-06	1.484100E+02
-1.528990E-01	-4.627426E-06	1.488500E+02
-1.528138E-01	-4.555225E-06	1.492900E+02
-1.531453E-01	-4.813307E-06	1.501800E+02
-1.532190E-01	-4.617440E-06	1.506200E+02
-1.530855E-01	-4.568282E-06	1.510500E+02
-1.529335E-01	-4.524500E-06	1.515000E+02
-1.528537E-01	-4.596702E-06	1.519400E+02
-1.529726E-01	-4.600543E-06	1.523900E+02
-1.531239E-01	-4.608223E-06	1.528200E+02
-1.531400E-01	-4.631267E-06	1.532500E+02
-1.530010E-01	-4.460748E-06	1.537000E+02
-1.529097E-01	-4.661222E-06	1.541400E+02
-1.528867E-01	-4.588253E-06	1.545900E+02
-1.530686E-01	-4.725743E-06	1.550200E+02
-1.533150E-01	-4.691179E-06	1.554600E+02
-1.531131E-01	-4.611296E-06	1.559000E+02
-1.530840E-01	-4.623585E-06	1.563500E+02
-1.529074E-01	-4.615905E-06	1.567800E+02
-1.529389E-01	-4.687338E-06	1.572100E+02
-1.531661E-01	-4.744945E-06	1.576600E+02
-1.531577E-01	-4.728047E-06	1.581000E+02
-1.531968E-01	-4.660454E-06	1.585400E+02
-1.529680E-01	-4.568282E-06	1.589800E+02
-1.527255E-01	-4.511443E-06	1.594200E+02
-1.532659E-01	-4.671976E-06	1.603000E+02
-1.533303E-01	-4.672744E-06	1.607400E+02
-1.530233E-01	-4.570586E-06	1.611800E+02
-1.527347E-01	-4.540630E-06	1.616200E+02
-1.528406E-01	-4.589789E-06	1.620500E+02
-1.530256E-01	-4.660454E-06	1.625000E+02
-1.532920E-01	-4.705004E-06	1.629300E+02
-1.532382E-01	-4.728047E-06	1.633800E+02
-1.531822E-01	-4.658150E-06	1.638100E+02
-1.527746E-01	-4.484559E-06	1.642500E+02
-1.528514E-01	-4.604383E-06	1.647000E+02
-1.530578E-01	-4.675816E-06	1.651300E+02
-1.531837E-01	-4.658918E-06	1.655700E+02
-1.531008E-01	-4.616672E-06	1.660200E+02
-1.527685E-01	-4.539094E-06	1.664700E+02
-1.527761E-01	-4.544471E-06	1.669000E+02
-1.532544E-01	-4.792568E-06	1.674900E+02
-1.533050E-01	-4.565210E-06	1.684600E+02
-1.533027E-01	-4.614368E-06	1.704500E+02
-1.529489E-01	-4.424647E-06	1.713300E+02
-1.528614E-01	-4.579804E-06	1.717800E+02
-1.527577E-01	-4.628194E-06	1.722100E+02
-1.532283E-01	-4.664294E-06	1.726600E+02
-1.531615E-01	-4.539094E-06	1.731100E+02
-1.530901E-01	-4.629730E-06	1.735600E+02
-1.530149E-01	-4.569818E-06	1.739900E+02
-1.526641E-01	-4.612832E-06	1.745900E+02
-1.535253E-01	-4.730352E-06	1.755900E+02
-1.532129E-01	-4.549080E-06	1.760200E+02
-1.529396E-01	-4.562137E-06	1.764700E+02
-1.527930E-01	-4.571355E-06	1.769000E+02
-1.530939E-01	-4.535254E-06	1.773500E+02
-1.530586E-01	-4.572123E-06	1.777800E+02
-1.531714E-01	-4.536022E-06	1.782200E+02
-1.532590E-01	-4.632802E-06	1.786600E+02
-1.531001E-01	-4.509138E-06	1.791000E+02
-1.528038E-01	-4.552920E-06	1.799800E+02
-1.532728E-01	-4.688874E-06	1.804300E+02
-1.534217E-01	-4.676584E-06	1.808600E+02
-1.533879E-01	-4.575963E-06	1.813100E+02
-1.531177E-01	-4.473806E-06	1.817400E+02
-1.527815E-01	-4.514515E-06	1.821800E+02
-1.526518E-01	-4.496080E-06	1.826300E+02
-1.529680E-01	-4.654309E-06	1.830700E+02
-1.533196E-01	-4.620513E-06	1.835100E+02
-1.533979E-01	-4.611296E-06	1.840700E+02
-1.528268E-01	-4.578268E-06	1.850900E+02
-1.527278E-01	-4.488400E-06	1.855300E+02
-1.530655E-01	-4.635875E-06	1.859600E+02
-1.535077E-01	-4.648165E-06	1.864100E+02
-1.532666E-01	-4.595166E-06	1.868500E+02
-1.530318E-01	-4.487631E-06	1.872800E+02
-1.526610E-01	-4.472270E-06	1.877200E+02
-1.528460E-01	-4.509138E-06	1.881600E+02
-1.530870E-01	-4.709613E-06	1.886000E+02
-1.533802E-01	-4.583645E-06	1.890400E+02
-1.529366E-01	-4.536790E-06	1.895000E+02
-1.528851E-01	-4.459980E-06	1.903900E+02
-1.526940E-01	-4.474574E-06	1.908200E+02
-1.529726E-01	-4.549848E-06	1.912600E+02
-1.534808E-01	-4.631267E-06	1.919900E+02
-1.531154E-01	-4.483023E-06	1.924500E+02
-1.529343E-01	-4.505298E-06	1.928800E+02
-1.527930E-01	-4.357822E-06	1.933300E+02
-1.531638E-01	-4.674280E-06	1.938800E+02
-1.531070E-01	-4.494545E-06	1.949100E+02
-1.529512E-01	-4.363967E-06	1.953600E+02
-1.528022E-01	-4.501458E-06	1.957900E+02
-1.527823E-01	-4.529877E-06	1.962300E+02
-1.528821E-01	-4.603615E-06	1.966700E+02
-1.532329E-01	-4.566746E-06	1.971100E+02
-1.531906E-01	-4.595934E-06	1.975700E+02
-1.532006E-01	-4.570586E-06	1.980000E+02
-1.528475E-01	-4.426952E-06	1.984500E+02
-1.526242E-01	-4.416198E-06	1.989700E+02
-1.534624E-01	-4.747249E-06	1.999900E+02
-1.530540E-01	-4.434633E-06	2.008700E+02
-1.529412E-01	-4.473806E-06	2.013200E+02
-1.528967E-01	-4.566746E-06	2.017500E+02
-1.527761E-01	-4.432329E-06	2.021900E+02
-1.533411E-01	-4.682729E-06	2.026300E+02
-1.534455E-01	-4.596702E-06	2.030700E+02
-1.533042E-01	-4.576731E-06	2.035100E+02
-1.528706E-01	-4.447690E-06	2.051500E+02
-1.530095E-01	-4.523733E-06	2.056000E+02
-1.534248E-01	-4.707309E-06	2.061800E+02
-1.534017E-01	-4.587485E-06	2.066200E+02
-1.532973E-01	-4.544471E-06	2.070600E+02
-1.529227E-01	-4.500689E-06	2.075100E+02
-1.529036E-01	-4.482255E-06	2.079400E+02
-1.531676E-01	-4.549848E-06	2.083800E+02
-1.530602E-01	-4.572891E-06	2.088200E+02
-1.532689E-01	-4.628962E-06	2.092500E+02
-1.532559E-01	-4.555224E-06	2.101400E+02
-1.533211E-01	-4.562905E-06	2.105800E+02
-1.529842E-01	-4.529109E-06	2.110100E+02
-1.527600E-01	-4.507602E-06	2.114600E+02
-1.527186E-01	-4.443081E-06	2.119000E+02
-1.530763E-01	-4.537558E-06	2.123500E+02
-1.532083E-01	-4.629730E-06	2.127800E+02
-1.532267E-01	-4.514515E-06	2.135900E+02
-1.532398E-01	-4.368576E-06	2.145900E+02
-1.528306E-01	-4.493776E-06	2.150200E+02
-1.527424E-01	-4.386242E-06	2.154700E+02
-1.530410E-01	-4.493008E-06	2.159000E+02
-1.529734E-01	-4.454603E-06	2.163500E+02
-1.532459E-01	-4.492240E-06	2.167900E+02
-1.533357E-01	-4.518356E-06	2.172200E+02
-1.530248E-01	-4.454603E-06	2.176700E+02
-1.533258E-01	-4.541399E-06	2.181100E+02
-1.528675E-01	-4.455371E-06	2.197600E+02
-1.532973E-01	-4.499921E-06	2.206400E+02
-1.534762E-01	-4.673512E-06	2.210800E+02
-1.533856E-01	-4.536790E-06	2.215400E+02
-1.531945E-01	-4.415430E-06	2.219800E+02
-1.530832E-01	-4.486095E-06	2.224300E+02
-1.529573E-01	-4.453067E-06	2.229800E+02
-1.530072E-01	-4.461516E-06	2.239900E+02
-1.531124E-01	-4.604383E-06	2.244400E+02
-1.534025E-01	-4.588253E-06	2.248700E+02
-1.534509E-01	-4.527573E-06	2.253200E+02
-1.533611E-01	-4.508370E-06	2.257600E+02
-1.533373E-01	-4.526805E-06	2.262000E+02
-1.529281E-01	-4.398532E-06	2.266500E+02
-1.528245E-01	-4.491472E-06	2.270800E+02
-1.529680E-01	-3.762544E-06	2.276900E+02
-1.532221E-01	-4.643556E-06	2.286900E+02
-1.532160E-01	-4.615137E-06	2.291200E+02
-1.535461E-01	-4.499153E-06	2.300100E+02
-1.531906E-01	-4.492240E-06	2.304600E+02
-1.530417E-01	-4.458444E-06	2.308900E+02
-1.532221E-01	-4.633571E-06	2.313400E+02
-1.529895E-01	-4.409285E-06	2.317800E+02
-1.527101E-01	-4.450763E-06	2.322200E+02
-1.530003E-01	-4.523733E-06	2.327900E+02
-1.530118E-01	-4.463820E-06	2.337900E+02
-1.533641E-01	-4.647397E-06	2.342200E+02
-1.532697E-01	-4.562137E-06	2.346700E+02
-1.528744E-01	-4.383938E-06	2.351000E+02
-1.530072E-01	-4.539862E-06	2.355500E+02
-1.529987E-01	-4.466125E-06	2.359900E+02
-1.528690E-01	-4.419271E-06	2.364300E+02
-1.528337E-01	-4.413126E-06	2.368600E+02
-1.531546E-01	-4.519892E-06	2.373100E+02
-1.532536E-01	-4.430792E-06	2.377500E+02
-1.530141E-01	-4.496081E-06	2.381800E+02
-1.533948E-01	-4.542935E-06	2.386200E+02
-1.530364E-01	-4.373952E-06	2.390600E+02
-1.530540E-01	-4.524500E-06	2.395100E+02
-1.525689E-01	-4.434633E-06	2.403900E+02
-1.530241E-01	-4.528341E-06	2.408200E+02
-1.530594E-01	-4.520660E-06	2.412600E+02
-1.530387E-01	-4.601311E-06	2.417100E+02
-1.533111E-01	-4.559065E-06	2.421400E+02
-1.533618E-01	-4.496848E-06	2.425800E+02
-1.535790E-01	-4.515283E-06	2.430200E+02
-1.532874E-01	-4.377025E-06	2.434700E+02
-1.531638E-01	-4.466893E-06	2.439000E+02
-1.528498E-01	-4.428488E-06	2.455500E+02
-1.531338E-01	-4.580572E-06	2.460000E+02
-1.531929E-01	-4.555992E-06	2.465900E+02
-1.533342E-01	-4.622817E-06	2.470200E+02
-1.533488E-01	-4.379329E-06	2.474700E+02
-1.533119E-01	-4.652005E-06	2.479100E+02
-1.531085E-01	-4.350909E-06	2.483500E+02
-1.531384E-01	-4.438473E-06	2.487900E+02
-1.530625E-01	-4.410053E-06	2.492200E+02
-1.529335E-01	-4.367808E-06	2.501000E+02
-1.528859E-01	-4.413894E-06	2.505500E+02
-1.532298E-01	-4.474574E-06	2.509900E+02
-1.533035E-01	-4.423111E-06	2.514300E+02
-1.529481E-01	-4.455371E-06	2.518600E+02
-1.529611E-01	-4.508371E-06	2.523100E+02
-1.530010E-01	-4.419271E-06	2.527500E+02
-1.530932E-01	-4.458444E-06	2.543600E+02
-1.532106E-01	-4.451531E-06	2.548100E+02
-1.533480E-01	-4.397764E-06	2.553900E+02
-1.532052E-01	-4.380866E-06	2.558200E+02
-1.534056E-01	-4.334780E-06	2.562600E+02
-1.529980E-01	-4.421575E-06	2.567000E+02
-1.528168E-01	-4.340156E-06	2.571500E+02
-1.527923E-01	-4.388547E-06	2.575900E+02
-1.530463E-01	-4.359359E-06	2.580300E+02
-1.532620E-01	-4.498385E-06	2.585600E+02
-1.532359E-01	-4.526037E-06	2.595900E+02
-1.534370E-01	-4.377025E-06	2.604800E+02
-1.531538E-01	-4.460748E-06	2.609100E+02
-1.527247E-01	-4.447690E-06	2.625600E+02
-1.531269E-01	-4.495313E-06	2.630100E+02
-1.531553E-01	-4.522196E-06	2.635900E+02
-1.532428E-01	-4.560601E-06	2.640200E+02
-1.534186E-01	-4.329403E-06	2.644700E+02
-1.534931E-01	-4.552920E-06	2.649100E+02
-1.531960E-01	-4.444618E-06	2.653500E+02
-1.532329E-01	-4.627426E-06	2.657900E+02
-1.533964E-01	-4.624354E-06	2.662200E+02
-1.529780E-01	-4.532950E-06	2.666700E+02
-1.530279E-01	-4.483023E-06	2.671100E+02
-1.530187E-01	-4.459212E-06	2.675600E+02
-1.529151E-01	-4.493776E-06	2.679900E+02
-1.530018E-01	-4.413894E-06	2.684300E+02
-1.529657E-01	-4.387010E-06	2.688700E+02
-1.530978E-01	-4.449226E-06	2.693100E+02
-1.532459E-01	-4.356286E-06	2.701900E+02
-1.532812E-01	-4.516819E-06	2.706300E+02
-1.534048E-01	-4.421575E-06	2.710700E+02
-1.532528E-01	-4.326330E-06	2.715200E+02
-1.533119E-01	-4.485327E-06	2.719600E+02
-1.532697E-01	-4.340156E-06	2.724000E+02
-1.530218E-01	-4.531414E-06	2.731800E+02
-1.529043E-01	-4.447690E-06	2.741600E+02
-1.527324E-01	-4.261809E-06	2.746400E+02
-1.527293E-01	-4.339388E-06	2.750700E+02
-1.527562E-01	-4.294070E-06	2.755200E+02
-1.529220E-01	-4.468429E-06	2.759600E+02
-1.531538E-01	-4.456907E-06	2.764100E+02
-1.532236E-01	-4.571355E-06	2.768400E+02
-1.532236E-01	-4.413126E-06	2.772800E+02
-1.534378E-01	-4.426952E-06	2.777300E+02
-1.533534E-01	-4.450763E-06	2.781600E+02
-1.534063E-01	-4.378561E-06	2.786100E+02
-1.531469E-01	-4.363199E-06	2.793600E+02
-1.529489E-01	-4.398532E-06	2.804000E+02
-1.528882E-01	-4.378561E-06	2.808400E+02
-1.529773E-01	-4.539094E-06	2.812700E+02
-1.531124E-01	-4.426184E-06	2.818600E+02
-1.531968E-01	-4.542167E-06	2.828900E+02
-1.533802E-01	-4.576731E-06	2.833400E+02
-1.535453E-01	-4.671976E-06	2.837700E+02
-1.528982E-01	-4.306360E-06	2.842000E+02
-1.533296E-01	-4.519892E-06	2.846500E+02
-1.532390E-01	-4.599006E-06	2.851000E+02
-1.528790E-01	-4.285621E-06	2.855500E+02
-1.530057E-01	-4.294838E-06	2.859800E+02
-1.528468E-01	-4.247216E-06	2.875500E+02
-1.533718E-01	-4.378561E-06	2.895500E+02
-1.530617E-01	-4.383170E-06	2.905600E+02
-1.528199E-01	-4.388547E-06	2.915600E+02
-1.530210E-01	-4.539094E-06	2.920100E+02
-1.528821E-01	-4.401604E-06	2.924600E+02
-1.529673E-01	-4.463820E-06	2.928900E+02
-1.530555E-01	-4.377793E-06	2.933400E+02
-1.532736E-01	-4.546775E-06	2.937700E+02
-1.533104E-01	-4.506066E-06	2.942100E+02
-1.533518E-01	-4.432328E-06	2.946600E+02
-1.531484E-01	-4.348605E-06	2.950900E+02
-1.533979E-01	-4.476878E-06	2.955300E+02
-1.530164E-01	-4.310969E-06	2.959700E+02
-1.529895E-01	-4.415430E-06	2.964200E+02
-1.531392E-01	-4.271027E-06	2.968600E+02
-1.528468E-01	-4.312504E-06	2.973000E+02
-1.528068E-01	-4.418503E-06	2.977500E+02
-1.530325E-01	-4.566746E-06	2.981900E+02
-1.532329E-01	-4.605919E-06	2.986300E+02
-1.531047E-01	-4.477646E-06	2.991500E+02
-1.530763E-01	-4.409285E-06	3.001600E+02
-1.533158E-01	-4.333243E-06	3.006100E+02
-1.533426E-01	-4.332475E-06	3.010400E+02
-1.533941E-01	-4.626658E-06	3.014900E+02
-1.532605E-01	-4.525269E-06	3.019200E+02
-1.531814E-01	-4.512979E-06	3.023700E+02
-1.531308E-01	-4.483023E-06	3.028100E+02
-1.532183E-01	-4.425416E-06	3.032400E+02
-1.528575E-01	-4.370112E-06	3.036800E+02
-1.530195E-01	-4.481486E-06	3.041200E+02
-1.528874E-01	-4.291766E-06	3.045700E+02
-1.530425E-01	-4.317881E-06	3.050000E+02
-1.531668E-01	-4.526805E-06	3.054400E+02
-1.529811E-01	-4.596702E-06	3.058800E+02
-1.532436E-01	-4.594398E-06	3.063300E+02
-1.531684E-01	-4.321721E-06	3.067600E+02
-1.532935E-01	-4.516819E-06	3.072000E+02
-1.533373E-01	-4.610527E-06	3.076400E+02
-1.533288E-01	-4.562905E-06	3.080700E+02
-1.531676E-01	-4.460748E-06	3.085200E+02
-1.530878E-01	-4.477646E-06	3.089600E+02
-1.531653E-01	-4.424647E-06	3.094100E+02
-1.528775E-01	-4.441546E-06	3.102800E+02
-1.528022E-01	-4.384706E-06	3.107300E+02
-1.531853E-01	-4.570586E-06	3.111700E+02
-1.531392E-01	-4.575195E-06	3.116100E+02
-1.533012E-01	-4.559065E-06	3.123600E+02
-1.534447E-01	-4.597470E-06	3.133600E+02
-1.533311E-01	-4.522196E-06	3.138000E+02
-1.533795E-01	-4.543703E-06	3.142300E+02
-1.531039E-01	-4.387779E-06	3.146800E+02
-1.530287E-01	-4.386242E-06	3.151200E+02
-1.529504E-01	-4.360127E-06	3.155600E+02
-1.531453E-01	-4.329403E-06	3.160000E+02
-1.528391E-01	-4.289461E-06	3.164400E+02
-1.530003E-01	-4.370112E-06	3.168700E+02
-1.529443E-01	-4.504530E-06	3.173200E+02
-1.528590E-01	-4.445386E-06	3.177500E+02
-1.529780E-01	-4.481486E-06	3.181900E+02
-1.532835E-01	-4.571355E-06	3.186300E+02
-1.530916E-01	-4.505298E-06	3.190700E+02
-1.531131E-01	-4.420807E-06	3.195200E+02
-1.534501E-01	-4.486863E-06	3.204000E+02
-1.530033E-01	-4.334780E-06	3.208300E+02
-1.527370E-01	-4.370112E-06	3.212700E+02
-1.528107E-01	-4.480718E-06	3.217200E+02
-1.534017E-01	-4.486095E-06	3.233500E+02
-1.532981E-01	-4.345533E-06	3.238000E+02
-1.531983E-01	-4.316345E-06	3.243700E+02
-1.531676E-01	-4.413126E-06	3.248100E+02
-1.532613E-01	-4.453835E-06	3.252400E+02
-1.530371E-01	-4.281780E-06	3.257600E+02
-1.529519E-01	-4.483791E-06	3.267600E+02
-1.528061E-01	-4.335547E-06	3.272000E+02
-1.530709E-01	-4.516051E-06	3.276400E+02
-1.534808E-01	-4.495313E-06	3.280800E+02
-1.534217E-01	-4.488400E-06	3.285200E+02
-1.535361E-01	-4.580572E-06	3.289600E+02
-1.533864E-01	-4.373184E-06	3.294000E+02
-1.528506E-01	-4.345533E-06	3.302700E+02
-1.530210E-01	-4.391619E-06	3.307200E+02
-1.529934E-01	-4.398532E-06	3.311500E+02
-1.529205E-01	-4.348605E-06	3.316000E+02
-1.529220E-01	-4.443082E-06	3.320300E+02
-1.533050E-01	-4.611296E-06	3.324700E+02
-1.531093E-01	-4.400068E-06	3.329100E+02
-1.533319E-01	-4.546775E-06	3.333600E+02
-1.532206E-01	-4.429256E-06	3.338000E+02
-1.530740E-01	-4.394691E-06	3.342400E+02
-1.528322E-01	-4.296375E-06	3.346900E+02
-1.532590E-01	-4.445386E-06	3.362400E+02
-1.533580E-01	-4.542935E-06	3.372600E+02
-1.530686E-01	-4.380097E-06	3.382600E+02
-1.528867E-01	-4.409285E-06	3.387100E+02
-1.529957E-01	-4.400836E-06	3.391400E+02
-1.530947E-01	-4.473806E-06	3.400400E+02
-1.533196E-01	-4.403140E-06	3.404900E+02
-1.533403E-01	-4.436169E-06	3.409200E+02
-1.533419E-01	-4.526805E-06	3.414600E+02
-1.529972E-01	-4.394691E-06	3.424600E+02
-1.528659E-01	-4.552920E-06	3.429000E+02
-1.530840E-01	-4.428488E-06	3.433500E+02
-1.532106E-01	-4.426952E-06	3.437800E+02
-1.533603E-01	-4.481486E-06	3.442100E+02
-1.532390E-01	-4.325562E-06	3.446600E+02
-1.530033E-01	-4.387010E-06	3.451000E+02
-1.531684E-01	-4.309432E-06	3.455400E+02
-1.530648E-01	-4.390083E-06	3.459800E+02
-1.529151E-01	-4.277940E-06	3.464200E+02
-1.530126E-01	-4.363199E-06	3.468600E+02
-1.533925E-01	-4.493008E-06	3.473000E+02
-1.532375E-01	-4.457676E-06	3.477300E+02
-1.531837E-01	-4.339388E-06	3.481700E+02
-1.533181E-01	-4.464589E-06	3.486200E+02
-1.531891E-01	-4.295606E-06	3.490500E+02
-1.532736E-01	-4.429256E-06	3.495000E+02
-1.530793E-01	-4.413894E-06	3.503800E+02
-1.529504E-01	-4.331707E-06	3.508200E+02
-1.531223E-01	-4.476878E-06	3.512500E+02
-1.534654E-01	-4.452299E-06	3.516900E+02
-1.533096E-01	-4.321721E-06	3.521300E+02
-1.532459E-01	-4.379329E-06	3.525800E+02
-1.532321E-01	-4.372416E-06	3.530100E+02
-1.529059E-01	-4.190376E-06	3.546800E+02
-1.527447E-01	-4.303287E-06	3.551300E+02
-1.530118E-01	-4.423879E-06	3.556700E+02
-1.534286E-01	-4.512211E-06	3.561000E+02
-1.534171E-01	-4.350141E-06	3.565400E+02
-1.535230E-01	-4.343229E-06	3.569800E+02
-1.533603E-01	-4.396228E-06	3.574300E+02
-1.529650E-01	-4.211115E-06	3.578600E+02
-1.530955E-01	-4.441546E-06	3.583100E+02
-1.528015E-01	-4.249520E-06	3.587400E+02
-1.531377E-01	-4.467661E-06	3.591800E+02
-1.532897E-01	-4.411590E-06	3.600600E+02
-1.533365E-01	-4.572891E-06	3.605000E+02
-1.533802E-01	-4.385474E-06	3.609400E+02
-1.533587E-01	-4.373952E-06	3.613800E+02
-1.530264E-01	-4.359359E-06	3.618200E+02
-1.533503E-01	-4.387778E-06	3.622500E+02
-1.528967E-01	-4.241071E-06	3.627000E+02
-1.529849E-01	-4.233390E-06	3.631300E+02
-1.530433E-01	-4.259505E-06	3.635800E+02
-1.530295E-01	-4.337084E-06	3.640200E+02
-1.527923E-01	-4.251056E-06	3.644700E+02
-1.531569E-01	-4.370880E-06	3.649000E+02
-1.533357E-01	-4.441546E-06	3.653500E+02
-1.530947E-01	-4.356286E-06	3.657900E+02
-1.532083E-01	-4.347837E-06	3.674500E+02
-1.532060E-01	-4.336316E-06	3.679000E+02
-1.526787E-01	-4.366271E-06	3.684900E+02
-1.527884E-01	-4.438473E-06	3.689300E+02
-1.528698E-01	-4.416198E-06	3.693800E+02
-1.529765E-01	-4.385474E-06	3.702500E+02
-1.533188E-01	-4.500689E-06	3.714500E+02
-1.536136E-01	-4.565210E-06	3.719000E+02
-1.532160E-01	-4.491472E-06	3.724700E+02
-1.532144E-01	-4.442314E-06	3.729000E+02
-1.530179E-01	-4.249520E-06	3.733500E+02
-1.529151E-01	-4.317881E-06	3.737800E+02
-1.529151E-01	-4.397764E-06	3.742200E+02
-1.530540E-01	-4.284853E-06	3.746600E+02
-1.527769E-01	-4.154275E-06	3.750900E+02
-1.529013E-01	-4.304055E-06	3.755400E+02
-1.528859E-01	-4.287925E-06	3.759800E+02
-1.531154E-01	-4.526037E-06	3.764200E+02
-1.531999E-01	-4.457675E-06	3.768600E+02
-1.532874E-01	-4.385474E-06	3.773000E+02
-1.537249E-01	-4.552152E-06	3.777400E+02
-1.533319E-01	-4.369344E-06	3.781800E+02
-1.531315E-01	-4.301751E-06	3.786300E+02
-1.528897E-01	-4.290997E-06	3.790600E+02
-1.528667E-01	-4.230317E-06	3.798600E+02
-1.528330E-01	-4.327099E-06	3.808600E+02
-1.530509E-01	-4.433864E-06	3.813100E+02
-1.532336E-01	-4.552152E-06	3.817400E+02
-1.532720E-01	-4.290997E-06	3.821800E+02
-1.532106E-01	-4.410053E-06	3.826200E+02
-1.535261E-01	-4.456139E-06	3.830600E+02
-1.532229E-01	-4.299447E-06	3.835000E+02
-1.531262E-01	-4.361663E-06	3.839400E+02
-1.532505E-01	-4.307128E-06	3.843800E+02
-1.530417E-01	-4.318649E-06	3.848200E+02
-1.528828E-01	-4.228013E-06	3.852500E+02
-1.528375E-01	-4.443850E-06	3.856900E+02
-1.530939E-01	-4.294838E-06	3.861300E+02
-1.531569E-01	-4.405445E-06	3.865800E+02
-1.533557E-01	-4.371649E-06	3.870200E+02
-1.532567E-01	-4.435401E-06	3.874600E+02
-1.533012E-01	-4.480718E-06	3.878900E+02
-1.535767E-01	-4.437705E-06	3.883400E+02
-1.532267E-01	-4.363199E-06	3.887800E+02
-1.530671E-01	-4.277940E-06	3.892200E+02
-1.527869E-01	-4.231086E-06	3.901200E+02
-1.531592E-01	-4.398532E-06	3.905700E+02
-1.529903E-01	-4.319417E-06	3.910000E+02
-1.536612E-01	-4.589789E-06	3.925500E+02
-1.532083E-01	-4.313272E-06	3.935600E+02
-1.530862E-01	-4.300983E-06	3.945600E+02
-1.530655E-01	-4.238767E-06	3.950200E+02
-1.528721E-01	-4.386242E-06	3.954600E+02
-1.530847E-01	-4.453835E-06	3.958900E+02
-1.531837E-01	-4.425415E-06	3.964600E+02
-1.533848E-01	-4.363199E-06	3.974600E+02
-1.533111E-01	-4.244143E-06	3.978900E+02
-1.531423E-01	-4.356286E-06	3.983400E+02
-1.532083E-01	-4.338620E-06	3.987800E+02
-1.528890E-01	-4.250288E-06	3.992100E+02
-1.530517E-01	-4.426951E-06	4.001000E+02
-1.530517E-01	-4.235694E-06	4.005600E+02
-1.531538E-01	-4.469965E-06	4.009900E+02
-1.533004E-01	-4.418503E-06	4.014400E+02
-1.533618E-01	-4.486863E-06	4.019500E+02
-1.531907E-01	-4.191912E-06	4.029600E+02
-1.529673E-01	-4.423879E-06	4.034000E+02
-1.529358E-01	-4.383938E-06	4.038500E+02
-1.531837E-01	-4.314041E-06	4.043000E+02
-1.530463E-01	-4.367808E-06	4.047300E+02
-1.532398E-01	-4.347837E-06	4.052500E+02
-1.531983E-01	-4.253361E-06	4.062600E+02
-1.530801E-01	-4.368576E-06	4.067100E+02
-1.531553E-01	-4.373952E-06	4.071500E+02
-1.529381E-01	-4.176550E-06	4.076000E+02
-1.530141E-01	-4.259505E-06	4.081500E+02
-1.531146E-01	-4.401604E-06	4.091900E+02
-1.533234E-01	-4.423111E-06	4.100800E+02
-1.532474E-01	-4.347837E-06	4.105200E+02
-1.531768E-01	-4.370880E-06	4.109700E+02
-1.526932E-01	-4.335547E-06	4.114200E+02
-1.530786E-01	-4.380866E-06	4.118500E+02
-1.533204E-01	-4.375489E-06	4.133500E+02
-1.531338E-01	-4.355518E-06	4.143700E+02
-1.528199E-01	-4.381634E-06	4.153700E+02
-1.533250E-01	-4.416966E-06	4.173500E+02
-1.529941E-01	-4.215724E-06	4.177900E+02
-1.530717E-01	-4.330939E-06	4.182300E+02
-1.529266E-01	-4.325562E-06	4.186800E+02
-1.530356E-01	-4.529877E-06	4.191100E+02
-1.533641E-01	-4.407749E-06	4.200000E+02
-1.531937E-01	-4.406213E-06	4.204400E+02
-1.533541E-01	-4.373184E-06	4.208800E+02
-1.531361E-01	-4.311737E-06	4.213300E+02
-1.531308E-01	-4.261809E-06	4.217600E+02
-1.530417E-01	-4.430792E-06	4.221900E+02
-1.527677E-01	-4.324027E-06	4.226400E+02
-1.530878E-01	-4.372416E-06	4.230800E+02
-1.532620E-01	-4.453067E-06	4.235200E+02
-1.533396E-01	-4.400836E-06	4.239600E+02
-1.533204E-01	-4.369344E-06	4.244100E+02
-1.533250E-01	-4.357054E-06	4.248600E+02
-1.530463E-01	-4.294838E-06	4.253000E+02
-1.530018E-01	-4.324794E-06	4.268500E+02
-1.530717E-01	-4.290997E-06	4.278600E+02
-1.527301E-01	-4.280244E-06	4.288600E+02
-1.528575E-01	-4.302519E-06	4.293200E+02
-1.531070E-01	-4.367808E-06	4.301900E+02
-1.530256E-01	-4.332475E-06	4.306400E+02
-1.527454E-01	-4.179623E-06	4.310700E+02
-1.528452E-01	-4.337852E-06	4.317600E+02
-1.528498E-01	-4.282549E-06	4.321900E+02
-1.530210E-01	-4.369344E-06	4.326400E+02
-1.531315E-01	-4.269491E-06	4.330800E+02
-1.531162E-01	-4.327099E-06	4.335200E+02
-1.531799E-01	-4.369344E-06	4.339600E+02
-1.529312E-01	-4.304055E-06	4.344300E+02
-1.531085E-01	-4.453067E-06	4.348700E+02
-1.531553E-01	-4.347069E-06	4.353100E+02
-1.531507E-01	-4.329403E-06	4.357400E+02
-1.530494E-01	-4.463820E-06	4.373500E+02
-1.528867E-01	-4.257969E-06	4.378000E+02
-1.533741E-01	-4.347837E-06	4.383600E+02
-1.534079E-01	-4.395460E-06	4.388000E+02
-1.532452E-01	-4.306360E-06	4.392400E+02
-1.528437E-01	-4.331707E-06	4.401200E+02
-1.530433E-01	-4.342460E-06	4.405700E+02
-1.531031E-01	-4.300983E-06	4.410000E+02
-1.529796E-01	-4.357822E-06	4.414500E+02
-1.531983E-01	-4.310969E-06	4.418900E+02
-1.531546E-01	-4.410053E-06	4.423300E+02
-1.530663E-01	-4.386242E-06	4.427700E+02
-1.529373E-01	-4.266418E-06	4.432000E+02
-1.530878E-01	-4.337084E-06	4.436500E+02
-1.528598E-01	-4.401604E-06	4.440800E+02
-1.534324E-01	-4.435401E-06	4.445300E+02
-1.533987E-01	-4.394691E-06	4.449600E+02
-1.530870E-01	-4.281780E-06	4.454100E+02
-1.529980E-01	-4.273331E-06	4.458400E+02
-1.525451E-01	-4.246448E-06	4.462800E+02
-1.530817E-01	-4.490704E-06	4.467300E+02
-1.531101E-01	-4.372416E-06	4.471600E+02
-1.531699E-01	-4.405445E-06	4.476100E+02
-1.530648E-01	-4.370112E-06	4.480400E+02
-1.530740E-01	-4.361663E-06	4.484900E+02
-1.529181E-01	-4.249520E-06	4.489300E+02
-1.528345E-01	-4.297142E-06	4.493800E+02
-1.531423E-01	-4.363199E-06	4.502500E+02
-1.534693E-01	-4.404677E-06	4.507100E+02
-1.531300E-01	-4.424647E-06	4.511500E+02
-1.530793E-01	-4.327099E-06	4.516000E+02
-1.533004E-01	-4.454603E-06	4.531700E+02
-1.530264E-01	-4.409285E-06	4.551700E+02
-1.532336E-01	-4.472270E-06	4.561600E+02
-1.532920E-01	-4.288694E-06	4.571600E+02
-1.528184E-01	-4.292534E-06	4.576000E+02
-1.528921E-01	-4.357822E-06	4.580500E+02
-1.531070E-01	-4.377025E-06	4.585000E+02
-1.530302E-01	-4.449226E-06	4.589300E+02
-1.533549E-01	-4.436169E-06	4.593900E+02
-1.531830E-01	-4.390083E-06	4.602600E+02
-1.529773E-01	-4.262578E-06	4.607000E+02
-1.531377E-01	-4.366272E-06	4.611400E+02
-1.534079E-01	-4.519892E-06	4.618600E+02
-1.534010E-01	-4.382402E-06	4.623100E+02
-1.531315E-01	-4.314041E-06	4.627400E+02
-1.532283E-01	-4.271795E-06	4.631800E+02
