CORRW ASCII
  CorrWare for Windows: Version 3.5f
  Potentiostatic	[-0.16 Ref,3600 Sec][default]	IV_-160mV_2.cor
  Date: 11-05-2019    Time: 18:16:36
   
   
  Open Circuit Potential (V): -0.0548
  Begin Information:          Cell Information
    Surface Area:             1
    Density:                  0
    Weight:                   0
    Polarity:                 0
    PolarityI:                0
    Corrosion Unit Type:      0
    Reference Type:           0
    Reference Potential:      0
    User-Defined Potential:   0
    Stern-Geary:              26
  End Information:            Cell Information
  Begin Pstat:                1287
    Pstat Title:              Instrument #1
    Booster Type:             0
    Booster Name:             None
    Current Range:            5
    Current Limit:            0
    Current LimitType:        1
    Sweep Type:               0
    Use Error Beep:           1
    Auxilary Type:            0
    iR Comp. Type:            0
    iR Ohms:                  0
    iR Time:                  27
    iR Ratio:                 255
    LP Filter Type:           2
    Drift Correction:         1
    Null Correction:          0
    Pstat Bandwidth Type:     2
    Gstat Bandwidth Type:     2
    External Input:           0
    SafetyMinV:               0
    SafetyMaxV:               10
    SafetyMinI:               0
    SafetyMaxI:               4
    SafetyMinQ:               0
    SafetyMaxQ:               1000
    SafetyMinT:               0
    SafetyMaxT:               50
    SafetyChT:                0
    SafetyMinVUse:            0
    SafetyMaxVUse:            0
    SafetyMinIUse:            0
    SafetyMaxIUse:            0
    SafetyMinQUse:            0
    SafetyMaxQUse:            0
    SafetyMinTUse:            0
    SafetyMaxTUse:            0
  End Pstat:                  1287
  Begin Experiment:           Potentiostatic	[-0.16 Ref,3600 Sec][default]	IV_-160mV_2.cor
    Data File:                Z:\191101_Amezawa\fr_XAS\TPB2\500C 100%O2\Electrochem\IV_-160mV_2.cor
    Data Append:              0
    Comment Lines:            0
    Potential:                -0.16
    Potential Type:           1
    Total Time:               3600
    Time Units:               0
    Time Marker:              -1
    Measure Rate Type:        1
    Measure Rate #1:          2000
    Measure Rate #2:          10
    Measure Rate #3:          0.1
    Measure Rate #4:          2
    Use Threshold:            0
    Threshold I_Min:          -15
    Threshold I_Max:          15
    Threshold Delta:          5
    Threshold Time:           60
    Copy AuxV:                0
    Axes Type:                1
    Use Custom Pstat:         0
  End Experiment:             Potentiostatic	[-0.16 Ref,3600 Sec][default]	IV_-160mV_2.cor
  Data Points:                439
  E(Volts)	I(A/cm2)	T(Seconds)
End Comments
-1.521383E-01	-8.822795E-06	0.000000E+00
-1.530195E-01	-6.249656E-06	8.800000E-01
-1.527654E-01	-5.895562E-06	1.330000E+00
-1.526671E-01	-5.614436E-06	1.780000E+00
-1.527808E-01	-5.647465E-06	2.210000E+00
-1.526718E-01	-5.486163E-06	2.660000E+00
-1.524722E-01	-5.459280E-06	3.100000E+00
-1.524906E-01	-5.223473E-06	3.540000E+00
-1.529665E-01	-5.412426E-06	3.980000E+00
-1.530809E-01	-5.172010E-06	4.420000E+00
-1.532075E-01	-5.205806E-06	4.860000E+00
-1.531124E-01	-5.130532E-06	5.310000E+00
-1.529182E-01	-5.015318E-06	5.740000E+00
-1.526879E-01	-4.979217E-06	6.180000E+00
-1.527623E-01	-4.968463E-06	6.620000E+00
-1.527846E-01	-4.891653E-06	7.060000E+00
-1.526948E-01	-5.003796E-06	7.500000E+00
-1.528445E-01	-5.089055E-06	7.930000E+00
-1.529274E-01	-4.983825E-06	8.380000E+00
-1.530939E-01	-5.046041E-06	8.820000E+00
-1.532705E-01	-5.108257E-06	9.250000E+00
-1.531707E-01	-4.804089E-06	1.013000E+01
-1.527608E-01	-4.837886E-06	1.058000E+01
-1.527677E-01	-4.774901E-06	1.102000E+01
-1.527431E-01	-4.777206E-06	1.146000E+01
-1.529159E-01	-4.804089E-06	1.190000E+01
-1.527055E-01	-4.918536E-06	1.234000E+01
-1.527915E-01	-4.789496E-06	1.278000E+01
-1.527953E-01	-4.717294E-06	1.321000E+01
-1.530256E-01	-4.857088E-06	1.366000E+01
-1.533465E-01	-4.913928E-06	1.409000E+01
-1.531185E-01	-4.802553E-06	1.454000E+01
-1.529803E-01	-4.758771E-06	1.498000E+01
-1.528683E-01	-4.751859E-06	1.542000E+01
-1.528368E-01	-4.805625E-06	1.587000E+01
-1.530018E-01	-4.774901E-06	1.632000E+01
-1.530164E-01	-4.710381E-06	1.675000E+01
-1.530755E-01	-4.784887E-06	1.725000E+01
-1.529128E-01	-4.612064E-06	1.827000E+01
-1.530724E-01	-4.793336E-06	1.871000E+01
-1.530294E-01	-4.688874E-06	1.915000E+01
-1.526833E-01	-4.602079E-06	2.004000E+01
-1.530586E-01	-4.761844E-06	2.125000E+01
-1.533019E-01	-4.694251E-06	2.170000E+01
-1.533142E-01	-4.738801E-06	2.226000E+01
-1.528943E-01	-4.656614E-06	2.425000E+01
-1.531093E-01	-4.709613E-06	2.625000E+01
-1.530440E-01	-4.650469E-06	2.669000E+01
-1.529151E-01	-4.549848E-06	2.714000E+01
-1.525735E-01	-4.463820E-06	2.758000E+01
-1.527117E-01	-4.562137E-06	2.802000E+01
-1.529703E-01	-4.559833E-06	2.847000E+01
-1.532252E-01	-4.671976E-06	2.890000E+01
-1.531561E-01	-4.691179E-06	2.935000E+01
-1.532137E-01	-4.658150E-06	3.025000E+01
-1.529343E-01	-4.574427E-06	3.070000E+01
-1.527877E-01	-4.549080E-06	3.113000E+01
-1.529281E-01	-4.551384E-06	3.158000E+01
-1.527155E-01	-4.483791E-06	3.201000E+01
-1.529166E-01	-4.520660E-06	3.245000E+01
-1.529734E-01	-4.643556E-06	3.289000E+01
-1.531523E-01	-4.629730E-06	3.335000E+01
-1.530724E-01	-4.481486E-06	3.378000E+01
-1.531177E-01	-4.570586E-06	3.422000E+01
-1.528038E-01	-4.523733E-06	3.476000E+01
-1.526280E-01	-4.510675E-06	3.576000E+01
-1.529880E-01	-4.756467E-06	3.620000E+01
-1.529911E-01	-4.606688E-06	3.664000E+01
-1.529558E-01	-4.636643E-06	3.708000E+01
-1.532513E-01	-4.675048E-06	3.752000E+01
-1.529742E-01	-4.454603E-06	3.796000E+01
-1.529074E-01	-4.425415E-06	3.840000E+01
-1.529159E-01	-4.599006E-06	3.883000E+01
-1.529258E-01	-4.567514E-06	3.927000E+01
-1.531461E-01	-4.681193E-06	4.015000E+01
-1.532766E-01	-4.569050E-06	4.060000E+01
-1.532436E-01	-4.638947E-06	4.103000E+01
-1.531139E-01	-4.506066E-06	4.148000E+01
-1.526679E-01	-4.493008E-06	4.191000E+01
-1.527961E-01	-4.607455E-06	4.236000E+01
-1.529711E-01	-4.621281E-06	4.279000E+01
-1.531308E-01	-4.610528E-06	4.356000E+01
-1.532060E-01	-4.454603E-06	4.457000E+01
-1.531308E-01	-4.575195E-06	4.654000E+01
-1.529980E-01	-4.534486E-06	4.699000E+01
-1.531868E-01	-4.459980E-06	4.745000E+01
-1.530387E-01	-4.543703E-06	4.789000E+01
-1.531837E-01	-4.568282E-06	4.834000E+01
-1.528383E-01	-4.445386E-06	4.885000E+01
-1.528990E-01	-4.520660E-06	4.986000E+01
-1.532605E-01	-4.566746E-06	5.075000E+01
-1.530955E-01	-4.493776E-06	5.118000E+01
-1.532129E-01	-4.434633E-06	5.163000E+01
-1.529596E-01	-4.471501E-06	5.207000E+01
-1.529089E-01	-4.459212E-06	5.251000E+01
-1.528713E-01	-4.474574E-06	5.294000E+01
-1.530609E-01	-4.569050E-06	5.339000E+01
-1.530371E-01	-4.476878E-06	5.383000E+01
-1.531500E-01	-4.529109E-06	5.427000E+01
-1.528690E-01	-4.582108E-06	5.605000E+01
-1.531599E-01	-4.538326E-06	5.706000E+01
-1.530901E-01	-4.575195E-06	5.807000E+01
-1.529504E-01	-4.519892E-06	5.852000E+01
-1.528567E-01	-4.508370E-06	5.897000E+01
-1.527362E-01	-4.539094E-06	5.941000E+01
-1.531937E-01	-4.605919E-06	6.029000E+01
-1.530471E-01	-4.340925E-06	6.096000E+01
-1.530202E-01	-4.509906E-06	6.140000E+01
-1.530494E-01	-4.443850E-06	6.184000E+01
-1.526226E-01	-4.335548E-06	6.228000E+01
-1.528061E-01	-4.495313E-06	6.272000E+01
-1.527999E-01	-4.459212E-06	6.316000E+01
-1.529642E-01	-4.532182E-06	6.360000E+01
-1.535576E-01	-4.614368E-06	6.404000E+01
-1.532766E-01	-4.503762E-06	6.448000E+01
-1.529220E-01	-4.407749E-06	6.492000E+01
-1.528399E-01	-4.340156E-06	6.536000E+01
-1.526925E-01	-4.400836E-06	6.580000E+01
-1.530947E-01	-4.634339E-06	6.624000E+01
-1.530141E-01	-4.443850E-06	6.668000E+01
-1.532421E-01	-4.552152E-06	6.712000E+01
-1.532574E-01	-4.449227E-06	6.756000E+01
-1.530164E-01	-4.284853E-06	6.799000E+01
-1.528583E-01	-4.367808E-06	6.845000E+01
-1.528836E-01	-4.435401E-06	6.888000E+01
-1.529074E-01	-4.485327E-06	6.933000E+01
-1.532091E-01	-4.586717E-06	7.020000E+01
-1.531868E-01	-4.401604E-06	7.086000E+01
-1.529949E-01	-4.360895E-06	7.130000E+01
-1.529381E-01	-4.449226E-06	7.176000E+01
-1.526971E-01	-4.387779E-06	7.219000E+01
-1.530256E-01	-4.518356E-06	7.264000E+01
-1.532344E-01	-4.446922E-06	7.315000E+01
-1.530287E-01	-4.377025E-06	7.419000E+01
-1.533127E-01	-4.414662E-06	7.614000E+01
-1.532336E-01	-4.468429E-06	7.661000E+01
-1.527201E-01	-4.214955E-06	7.705000E+01
-1.530141E-01	-4.422343E-06	7.750000E+01
-1.528775E-01	-4.418503E-06	7.805000E+01
-1.532736E-01	-4.430792E-06	7.906000E+01
-1.527447E-01	-4.376257E-06	7.952000E+01
-1.530770E-01	-4.521428E-06	8.040000E+01
-1.532651E-01	-4.497617E-06	8.084000E+01
-1.533188E-01	-4.509138E-06	8.127000E+01
-1.530033E-01	-4.248752E-06	8.196000E+01
-1.528936E-01	-4.312505E-06	8.241000E+01
-1.529220E-01	-4.439241E-06	8.284000E+01
-1.527738E-01	-4.317113E-06	8.328000E+01
-1.533357E-01	-4.526037E-06	8.373000E+01
-1.531784E-01	-4.409285E-06	8.416000E+01
-1.532344E-01	-4.442314E-06	8.461000E+01
-1.529082E-01	-4.358591E-06	8.504000E+01
-1.528414E-01	-4.483791E-06	8.549000E+01
-1.528406E-01	-4.394691E-06	8.593000E+01
-1.530594E-01	-4.390083E-06	8.756000E+01
-1.533119E-01	-4.474574E-06	8.955000E+01
-1.532628E-01	-4.354750E-06	9.044000E+01
-1.530179E-01	-4.337852E-06	9.090000E+01
-1.528045E-01	-4.354750E-06	9.135000E+01
-1.529842E-01	-4.434633E-06	9.179000E+01
-1.530126E-01	-4.407749E-06	9.236000E+01
-1.534125E-01	-4.507603E-06	9.336000E+01
-1.531576E-01	-4.363967E-06	9.380000E+01
-1.529558E-01	-4.369344E-06	9.424000E+01
-1.529112E-01	-4.351677E-06	9.468000E+01
-1.528445E-01	-4.437705E-06	9.512000E+01
-1.530486E-01	-4.476878E-06	9.556000E+01
-1.532981E-01	-4.432329E-06	9.599000E+01
-1.533142E-01	-4.453835E-06	9.646000E+01
-1.531676E-01	-4.297910E-06	9.689000E+01
-1.529227E-01	-4.366272E-06	9.734000E+01
-1.529987E-01	-4.368576E-06	9.785000E+01
-1.531761E-01	-4.522964E-06	9.887000E+01
-1.532137E-01	-4.474574E-06	9.932000E+01
-1.529358E-01	-4.259506E-06	1.001900E+02
-1.528867E-01	-4.330939E-06	1.006400E+02
-1.530809E-01	-4.410821E-06	1.012500E+02
-1.527815E-01	-4.482255E-06	1.017000E+02
-1.533227E-01	-4.610528E-06	1.021300E+02
-1.533518E-01	-4.578268E-06	1.025800E+02
-1.531592E-01	-4.317113E-06	1.030200E+02
-1.530663E-01	-4.366272E-06	1.034600E+02
-1.529166E-01	-4.432329E-06	1.038900E+02
-1.529350E-01	-4.367808E-06	1.043400E+02
-1.527101E-01	-4.403908E-06	1.047800E+02
-1.531968E-01	-4.486095E-06	1.052100E+02
-1.531584E-01	-4.458444E-06	1.056500E+02
-1.532482E-01	-4.421575E-06	1.060900E+02
-1.527385E-01	-4.234158E-06	1.065400E+02
-1.528544E-01	-4.325562E-06	1.069800E+02
-1.528030E-01	-4.340156E-06	1.074200E+02
-1.529826E-01	-4.424647E-06	1.078500E+02
-1.530410E-01	-4.443850E-06	1.083000E+02
-1.531569E-01	-4.532181E-06	1.087400E+02
-1.533948E-01	-4.438473E-06	1.091700E+02
-1.529274E-01	-4.334011E-06	1.100500E+02
-1.527554E-01	-4.330171E-06	1.105300E+02
-1.529458E-01	-4.440778E-06	1.109600E+02
-1.529895E-01	-4.356286E-06	1.114100E+02
-1.531807E-01	-4.470734E-06	1.118400E+02
-1.534094E-01	-4.409285E-06	1.122800E+02
-1.531231E-01	-4.357822E-06	1.127300E+02
-1.529335E-01	-4.271795E-06	1.131600E+02
-1.527746E-01	-4.310969E-06	1.136000E+02
-1.527669E-01	-4.343997E-06	1.140400E+02
-1.530057E-01	-4.482255E-06	1.144900E+02
-1.529281E-01	-4.402372E-06	1.149300E+02
-1.532659E-01	-4.421575E-06	1.153700E+02
-1.530993E-01	-4.362431E-06	1.158000E+02
-1.528698E-01	-4.296374E-06	1.162400E+02
-1.528544E-01	-4.318650E-06	1.166900E+02
-1.529719E-01	-4.417735E-06	1.171200E+02
-1.529995E-01	-4.297143E-06	1.175600E+02
-1.532674E-01	-4.417735E-06	1.180000E+02
-1.532804E-01	-4.398531E-06	1.184500E+02
-1.533664E-01	-4.471502E-06	1.188900E+02
-1.527224E-01	-4.240303E-06	1.193500E+02
-1.526556E-01	-4.387779E-06	1.202100E+02
-1.529189E-01	-4.383938E-06	1.206600E+02
-1.532037E-01	-4.454603E-06	1.213600E+02
-1.533772E-01	-4.489168E-06	1.217900E+02
-1.531170E-01	-4.294070E-06	1.222300E+02
-1.530241E-01	-4.466125E-06	1.226800E+02
-1.529826E-01	-4.364736E-06	1.231100E+02
-1.527071E-01	-4.268723E-06	1.235500E+02
-1.528191E-01	-4.400068E-06	1.239900E+02
-1.530724E-01	-4.459980E-06	1.244500E+02
-1.532014E-01	-4.457676E-06	1.248900E+02
-1.534071E-01	-4.541399E-06	1.253300E+02
-1.532559E-01	-4.362431E-06	1.258500E+02
-1.528813E-01	-4.255665E-06	1.268600E+02
-1.527961E-01	-4.396996E-06	1.273000E+02
-1.529773E-01	-4.387779E-06	1.277500E+02
-1.530578E-01	-4.454603E-06	1.281900E+02
-1.533411E-01	-4.493776E-06	1.286300E+02
-1.532904E-01	-4.327866E-06	1.291500E+02
-1.530133E-01	-4.430024E-06	1.301600E+02
-1.529803E-01	-4.325562E-06	1.306200E+02
-1.528621E-01	-4.324027E-06	1.310500E+02
-1.529972E-01	-4.442314E-06	1.315000E+02
-1.529934E-01	-4.296375E-06	1.320500E+02
-1.533280E-01	-4.317113E-06	1.330600E+02
-1.531876E-01	-4.459980E-06	1.335100E+02
-1.532413E-01	-4.274867E-06	1.339400E+02
-1.530809E-01	-4.410821E-06	1.343900E+02
-1.529880E-01	-4.174246E-06	1.348300E+02
-1.529880E-01	-4.286389E-06	1.352600E+02
-1.527646E-01	-4.391619E-06	1.357100E+02
-1.528890E-01	-4.430792E-06	1.361400E+02
-1.528606E-01	-4.423111E-06	1.365900E+02
-1.528967E-01	-4.347837E-06	1.370200E+02
-1.529473E-01	-4.295606E-06	1.374700E+02
-1.532544E-01	-4.281780E-06	1.379000E+02
-1.532689E-01	-4.411590E-06	1.383500E+02
-1.532851E-01	-4.493008E-06	1.387900E+02
-1.529542E-01	-4.326330E-06	1.404900E+02
-1.529396E-01	-4.413126E-06	1.413700E+02
-1.529005E-01	-4.251056E-06	1.418200E+02
-1.529965E-01	-4.428488E-06	1.424600E+02
-1.532720E-01	-4.478414E-06	1.434600E+02
-1.534455E-01	-4.569818E-06	1.439000E+02
-1.536942E-01	-4.394692E-06	1.443500E+02
-1.534148E-01	-4.335548E-06	1.447900E+02
-1.533710E-01	-4.430024E-06	1.453600E+02
-1.530732E-01	-4.486095E-06	1.463600E+02
-1.529734E-01	-4.429256E-06	1.468000E+02
-1.528260E-01	-4.390083E-06	1.472400E+02
-1.527853E-01	-4.564441E-06	1.476800E+02
-1.530770E-01	-4.478414E-06	1.481200E+02
-1.528383E-01	-4.191144E-06	1.485600E+02
-1.529765E-01	-4.423111E-06	1.490000E+02
-1.528268E-01	-4.194217E-06	1.494400E+02
-1.529389E-01	-4.294838E-06	1.503300E+02
-1.529703E-01	-4.168101E-06	1.507600E+02
-1.530433E-01	-4.211883E-06	1.512000E+02
-1.532413E-01	-4.523732E-06	1.516400E+02
-1.533219E-01	-4.261041E-06	1.520800E+02
-1.532973E-01	-4.334011E-06	1.525300E+02
-1.532160E-01	-4.317113E-06	1.529600E+02
-1.529780E-01	-4.354750E-06	1.534100E+02
-1.532060E-01	-4.361663E-06	1.538500E+02
-1.530509E-01	-4.072088E-06	1.542800E+02
-1.529949E-01	-4.135073E-06	1.547300E+02
-1.531361E-01	-4.226477E-06	1.551700E+02
-1.529389E-01	-4.381634E-06	1.556100E+02
-1.527984E-01	-4.409285E-06	1.560500E+02
-1.526641E-01	-4.382402E-06	1.564900E+02
-1.527224E-01	-4.477646E-06	1.569300E+02
-1.529711E-01	-4.181160E-06	1.573700E+02
-1.527493E-01	-4.214187E-06	1.578100E+02
-1.529481E-01	-4.306360E-06	1.582400E+02
-1.527071E-01	-4.141218E-06	1.586900E+02
-1.527593E-01	-4.154276E-06	1.591200E+02
-1.530901E-01	-4.290997E-06	1.600100E+02
-1.532459E-01	-4.274099E-06	1.604700E+02
-1.532167E-01	-4.339388E-06	1.609100E+02
-1.531753E-01	-4.356286E-06	1.613600E+02
-1.531976E-01	-4.503762E-06	1.618500E+02
-1.533327E-01	-4.368576E-06	1.628600E+02
-1.532712E-01	-4.229550E-06	1.633100E+02
-1.531722E-01	-4.284085E-06	1.637500E+02
-1.530594E-01	-4.402372E-06	1.641900E+02
-1.529281E-01	-4.189608E-06	1.646300E+02
-1.529780E-01	-4.211115E-06	1.650700E+02
-1.527754E-01	-4.349374E-06	1.655100E+02
-1.529105E-01	-4.193449E-06	1.659500E+02
-1.528391E-01	-4.417735E-06	1.663900E+02
-1.528483E-01	-4.370112E-06	1.668300E+02
-1.529350E-01	-4.465357E-06	1.672600E+02
-1.530778E-01	-4.469197E-06	1.677100E+02
-1.532229E-01	-4.453835E-06	1.681400E+02
-1.533365E-01	-4.380097E-06	1.685900E+02
-1.533948E-01	-4.454603E-06	1.690200E+02
-1.532966E-01	-4.257201E-06	1.694700E+02
-1.531807E-01	-4.244912E-06	1.703600E+02
-1.530655E-01	-4.400068E-06	1.707900E+02
-1.529320E-01	-4.377793E-06	1.724800E+02
-1.530356E-01	-4.299447E-06	1.729200E+02
-1.530440E-01	-4.393155E-06	1.734600E+02
-1.530947E-01	-4.466125E-06	1.739000E+02
-1.533833E-01	-4.520660E-06	1.743400E+02
-1.533925E-01	-4.388546E-06	1.747800E+02
-1.533104E-01	-4.389315E-06	1.752200E+02
-1.533135E-01	-4.511443E-06	1.756600E+02
-1.530456E-01	-4.347837E-06	1.761000E+02
-1.529097E-01	-4.282549E-06	1.765400E+02
-1.528498E-01	-4.297910E-06	1.769800E+02
-1.529396E-01	-4.227245E-06	1.774200E+02
-1.528936E-01	-4.288694E-06	1.778500E+02
-1.529097E-01	-4.296375E-06	1.783000E+02
-1.531615E-01	-4.211883E-06	1.787400E+02
-1.532590E-01	-4.224941E-06	1.791700E+02
-1.532405E-01	-4.328635E-06	1.800600E+02
-1.531638E-01	-4.214955E-06	1.805100E+02
-1.531461E-01	-4.273331E-06	1.809400E+02
-1.528736E-01	-4.108957E-06	1.813900E+02
-1.529964E-01	-4.251056E-06	1.818200E+02
-1.529711E-01	-4.271027E-06	1.822600E+02
-1.530978E-01	-4.414662E-06	1.827000E+02
-1.531031E-01	-4.374720E-06	1.831400E+02
-1.531484E-01	-4.358591E-06	1.835900E+02
-1.533672E-01	-4.327098E-06	1.840200E+02
-1.533511E-01	-4.489168E-06	1.844700E+02
-1.533710E-01	-4.474573E-06	1.849000E+02
-1.532605E-01	-4.304055E-06	1.853500E+02
-1.530694E-01	-4.281780E-06	1.857800E+02
-1.528621E-01	-4.210347E-06	1.862200E+02
-1.528721E-01	-4.253361E-06	1.866600E+02
-1.528414E-01	-4.207275E-06	1.871000E+02
-1.528897E-01	-4.222637E-06	1.875500E+02
-1.529381E-01	-4.273331E-06	1.879800E+02
-1.530732E-01	-4.349373E-06	1.884300E+02
-1.530172E-01	-4.140450E-06	1.900800E+02
-1.531507E-01	-4.475342E-06	1.921000E+02
-1.532129E-01	-4.330171E-06	1.925500E+02
-1.534585E-01	-4.302519E-06	1.930600E+02
-1.530241E-01	-4.275636E-06	1.935100E+02
-1.528314E-01	-4.188840E-06	1.939400E+02
-1.529212E-01	-4.298679E-06	1.943900E+02
-1.526909E-01	-4.270259E-06	1.948300E+02
-1.528253E-01	-4.310200E-06	1.952600E+02
-1.529588E-01	-4.373184E-06	1.957100E+02
-1.531761E-01	-4.346301E-06	1.961400E+02
-1.531714E-01	-4.353214E-06	1.965900E+02
-1.530525E-01	-4.294070E-06	1.970200E+02
-1.529289E-01	-4.264114E-06	1.974700E+02
-1.527861E-01	-4.346301E-06	1.979100E+02
-1.529980E-01	-4.377793E-06	1.983600E+02
-1.529135E-01	-4.287925E-06	1.988000E+02
-1.533196E-01	-4.424647E-06	1.993600E+02
-1.530609E-01	-4.281780E-06	2.003600E+02
-1.527685E-01	-4.305592E-06	2.008100E+02
-1.529174E-01	-4.270259E-06	2.012500E+02
-1.528368E-01	-4.249520E-06	2.017000E+02
-1.531223E-01	-4.183463E-06	2.032500E+02
-1.527347E-01	-4.295607E-06	2.042900E+02
-1.530049E-01	-4.289462E-06	2.052600E+02
-1.532689E-01	-4.399300E-06	2.057100E+02
-1.530279E-01	-4.290997E-06	2.061400E+02
-1.528736E-01	-4.284085E-06	2.065900E+02
-1.526694E-01	-4.237999E-06	2.070200E+02
-1.528936E-01	-4.328635E-06	2.074700E+02
-1.532167E-01	-4.324026E-06	2.079000E+02
-1.534677E-01	-4.380097E-06	2.083500E+02
-1.533150E-01	-4.367040E-06	2.087800E+02
-1.531047E-01	-4.256433E-06	2.092200E+02
-1.528621E-01	-4.295607E-06	2.101000E+02
-1.527224E-01	-4.299447E-06	2.105500E+02
-1.531569E-01	-4.368576E-06	2.109900E+02
-1.532137E-01	-4.397764E-06	2.114300E+02
-1.535061E-01	-4.402372E-06	2.118700E+02
-1.528138E-01	-4.267186E-06	2.123100E+02
-1.528306E-01	-4.211883E-06	2.127500E+02
-1.530003E-01	-4.345533E-06	2.131900E+02
-1.530080E-01	-4.264114E-06	2.136300E+02
-1.530387E-01	-4.188840E-06	2.152800E+02
-1.531093E-01	-4.357822E-06	2.157200E+02
-1.527823E-01	-4.155812E-06	2.162800E+02
-1.527155E-01	-4.259505E-06	2.167200E+02
-1.533012E-01	-4.363967E-06	2.171600E+02
-1.534578E-01	-4.182695E-06	2.176000E+02
-1.533618E-01	-4.297142E-06	2.180400E+02
-1.532904E-01	-4.339388E-06	2.184800E+02
-1.530302E-01	-4.194217E-06	2.189300E+02
-1.526180E-01	-4.215724E-06	2.193700E+02
-1.529757E-01	-4.236463E-06	2.202500E+02
-1.530809E-01	-4.391619E-06	2.206900E+02
-1.534317E-01	-4.449995E-06	2.213600E+02
-1.531761E-01	-4.312504E-06	2.218000E+02
-1.530671E-01	-4.310200E-06	2.222400E+02
-1.529688E-01	-4.254897E-06	2.226800E+02
-1.528491E-01	-4.251056E-06	2.231100E+02
-1.528844E-01	-4.305592E-06	2.235600E+02
-1.528460E-01	-4.290997E-06	2.239900E+02
-1.531883E-01	-4.357822E-06	2.244400E+02
-1.531692E-01	-4.341692E-06	2.248800E+02
-1.533918E-01	-4.266418E-06	2.253300E+02
-1.529819E-01	-4.266418E-06	2.257600E+02
-1.528514E-01	-4.240303E-06	2.262000E+02
-1.527877E-01	-4.291766E-06	2.269800E+02
-1.531054E-01	-4.387778E-06	2.279800E+02
-1.529519E-01	-4.327866E-06	2.284300E+02
-1.532874E-01	-4.353982E-06	2.288600E+02
-1.529558E-01	-4.265650E-06	2.293100E+02
-1.530018E-01	-4.295607E-06	2.301800E+02
-1.531231E-01	-4.440778E-06	2.306200E+02
-1.531584E-01	-4.329403E-06	2.310600E+02
-1.533327E-01	-4.287925E-06	2.315000E+02
-1.530809E-01	-4.254897E-06	2.319400E+02
-1.529481E-01	-4.406213E-06	2.324000E+02
-1.528153E-01	-4.208042E-06	2.328300E+02
-1.529465E-01	-4.293302E-06	2.332700E+02
-1.530486E-01	-4.267186E-06	2.348500E+02
-1.529757E-01	-4.362431E-06	2.358800E+02
-1.531638E-01	-4.138913E-06	2.368900E+02
-1.528951E-01	-4.240303E-06	2.373400E+02
-1.528245E-01	-4.239535E-06	2.377900E+02
-1.529726E-01	-4.300215E-06	2.382300E+02
-1.529619E-01	-4.358591E-06	2.387800E+02
