CORRW ASCII
  CorrWare for Windows: Version 3.5f
  Potentiostatic	[-0.2 Ref,1.5 Min][default]	IV_-200mV_1.cor
  Date: 11-05-2019    Time: 16:54:01
   
   
  Open Circuit Potential (V): -0.0089
  Begin Information:          Cell Information
    Surface Area:             1
    Density:                  0
    Weight:                   0
    Polarity:                 0
    PolarityI:                0
    Corrosion Unit Type:      0
    Reference Type:           0
    Reference Potential:      0
    User-Defined Potential:   0
    Stern-Geary:              26
  End Information:            Cell Information
  Begin Pstat:                1287
    Pstat Title:              Instrument #1
    Booster Type:             0
    Booster Name:             None
    Current Range:            0
    Current Limit:            0
    Current LimitType:        0
    Sweep Type:               0
    Use Error Beep:           1
    Auxilary Type:            0
    iR Comp. Type:            0
    iR Ohms:                  0
    iR Time:                  27
    iR Ratio:                 255
    LP Filter Type:           2
    Drift Correction:         1
    Null Correction:          0
    Pstat Bandwidth Type:     2
    Gstat Bandwidth Type:     2
    External Input:           0
    SafetyMinV:               0
    SafetyMaxV:               10
    SafetyMinI:               0
    SafetyMaxI:               4
    SafetyMinQ:               0
    SafetyMaxQ:               1000
    SafetyMinT:               0
    SafetyMaxT:               50
    SafetyChT:                0
    SafetyMinVUse:            0
    SafetyMaxVUse:            0
    SafetyMinIUse:            0
    SafetyMaxIUse:            0
    SafetyMinQUse:            0
    SafetyMaxQUse:            0
    SafetyMinTUse:            0
    SafetyMaxTUse:            0
  End Pstat:                  1287
  Begin Experiment:           Potentiostatic	[-0.2 Ref,1.5 Min][default]	IV_-200mV_1.cor
    Data File:                Z:\191101_Amezawa\fr_XAS\TPB2\500C 100%O2\Electrochem\IV_-200mV_1.cor
    Data Append:              0
    Comment Lines:            0
    Potential:                -0.2
    Potential Type:           1
    Total Time:               1.5
    Time Units:               1
    Time Marker:              -1
    Measure Rate Type:        1
    Measure Rate #1:          2000
    Measure Rate #2:          10
    Measure Rate #3:          0.1
    Measure Rate #4:          2
    Use Threshold:            0
    Threshold I_Min:          -15
    Threshold I_Max:          15
    Threshold Delta:          5
    Threshold Time:           60
    Copy AuxV:                0
    Axes Type:                1
    Use Custom Pstat:         0
  End Experiment:             Potentiostatic	[-0.2 Ref,1.5 Min][default]	IV_-200mV_1.cor
  Data Points:                196
  E(Volts)	I(A/cm2)	T(Seconds)
End Comments
-1.999395E-01	-8.065097E-09	0.000000E+00
-1.999372E-01	-3.456482E-09	8.900000E-01
-1.999334E-01	-9.601309E-09	1.330000E+00
-1.999365E-01	-1.420990E-08	1.760000E+00
-1.999357E-01	-1.344181E-08	2.210000E+00
-1.999357E-01	-1.190562E-08	2.650000E+00
-1.999365E-01	-1.267371E-08	3.100000E+00
-1.999388E-01	-1.267371E-08	3.530000E+00
-1.999388E-01	-1.190562E-08	3.980000E+00
-1.999357E-01	-8.065097E-09	4.420000E+00
-1.999365E-01	-1.036940E-08	4.870000E+00
-1.999342E-01	-1.267371E-08	5.310000E+00
-1.999395E-01	-6.528885E-09	5.750000E+00
-1.999357E-01	-1.344181E-08	6.200000E+00
-1.999388E-01	-1.113750E-08	6.630000E+00
-1.999342E-01	-1.497802E-08	7.080000E+00
-1.999380E-01	-3.456482E-09	7.520000E+00
-1.999380E-01	-3.456482E-09	7.970000E+00
-1.999350E-01	-1.267371E-08	8.420000E+00
-1.999342E-01	-1.267371E-08	8.870000E+00
-1.999357E-01	-7.297002E-09	9.300000E+00
-1.999380E-01	-8.065097E-09	9.740000E+00
-1.999319E-01	-4.992673E-09	1.063000E+01
-1.999350E-01	-1.036940E-08	1.108000E+01
-1.999372E-01	-8.833192E-09	1.152000E+01
-1.999357E-01	-9.601287E-09	1.197000E+01
-1.999311E-01	-1.344181E-08	1.241000E+01
-1.999342E-01	-1.420990E-08	1.286000E+01
-1.999342E-01	-1.420990E-08	1.330000E+01
-1.999365E-01	-2.688366E-09	1.374000E+01
-1.999365E-01	-1.497800E-08	1.419000E+01
-1.999380E-01	-1.036940E-08	1.463000E+01
-1.999342E-01	-1.190559E-08	1.508000E+01
-1.999388E-01	-8.065097E-09	1.551000E+01
-1.999372E-01	-8.833192E-09	1.596000E+01
-1.999365E-01	-1.497800E-08	1.640000E+01
-1.999372E-01	-1.420990E-08	1.684000E+01
-1.999372E-01	-1.728230E-08	1.729000E+01
-1.999350E-01	-6.528885E-09	1.773000E+01
-1.999380E-01	-1.036940E-08	1.818000E+01
-1.999372E-01	-1.497800E-08	1.862000E+01
-1.999350E-01	-1.497800E-08	1.907000E+01
-1.999380E-01	-1.267371E-08	1.951000E+01
-1.999357E-01	-2.688388E-09	1.995000E+01
-1.999334E-01	-1.920292E-09	2.083000E+01
-1.999334E-01	-1.920292E-09	2.128000E+01
-1.999357E-01	-1.152175E-09	2.172000E+01
-1.999311E-01	1.152132E-09	2.217000E+01
-1.999388E-01	-4.992695E-09	2.260000E+01
-1.999334E-01	-1.920292E-09	2.305000E+01
-1.999334E-01	-2.688388E-09	2.349000E+01
-1.999342E-01	-4.992695E-09	2.394000E+01
-1.999342E-01	-4.224599E-09	2.438000E+01
-1.999357E-01	-4.224599E-09	2.481000E+01
-1.999350E-01	-4.224599E-09	2.526000E+01
-1.999350E-01	-8.065097E-09	2.570000E+01
-1.999334E-01	-6.528885E-09	2.615000E+01
-1.999380E-01	-5.760790E-09	2.658000E+01
-1.999342E-01	-1.920292E-09	2.704000E+01
-1.999350E-01	-3.456482E-09	2.748000E+01
-1.999350E-01	-3.456482E-09	2.793000E+01
-1.999357E-01	-7.297002E-09	2.836000E+01
-1.999319E-01	-5.760790E-09	2.880000E+01
-1.999334E-01	-1.036940E-08	2.925000E+01
-1.999334E-01	-1.574614E-08	2.968000E+01
-1.999319E-01	-2.112284E-08	3.056000E+01
-1.999334E-01	-2.189094E-08	3.101000E+01
-1.999372E-01	-2.189094E-08	3.145000E+01
-1.999303E-01	-2.342715E-08	3.190000E+01
-1.999349E-01	-2.035473E-08	3.233000E+01
-1.999342E-01	-1.497802E-08	3.277000E+01
-1.999319E-01	-1.958663E-08	3.322000E+01
-1.999326E-01	4.992607E-09	3.366000E+01
-1.999334E-01	-1.805042E-08	3.410000E+01
-1.999357E-01	6.528819E-09	3.454000E+01
-1.999334E-01	3.456395E-09	3.499000E+01
-1.999326E-01	-3.264434E-08	3.543000E+01
-1.999349E-01	-2.342715E-08	3.589000E+01
-1.999349E-01	8.065010E-09	3.633000E+01
-1.999334E-01	-3.648486E-08	3.677000E+01
-1.999349E-01	-3.955726E-08	3.721000E+01
-1.999334E-01	-2.649953E-08	3.765000E+01
-1.999349E-01	-4.109347E-08	3.810000E+01
-1.999342E-01	-2.649953E-08	3.853000E+01
-1.999395E-01	-2.880384E-08	3.898000E+01
-1.999380E-01	9.601222E-09	3.943000E+01
-1.999319E-01	3.456439E-09	3.988000E+01
-1.999334E-01	-2.035471E-08	4.075000E+01
-1.999372E-01	-2.573142E-08	4.120000E+01
-1.999319E-01	-2.496332E-08	4.163000E+01
-1.999349E-01	-2.726761E-08	4.208000E+01
-1.999403E-01	1.036934E-08	4.252000E+01
-1.999380E-01	9.601222E-09	4.297000E+01
-1.999349E-01	1.190553E-08	4.341000E+01
-1.999380E-01	4.224534E-09	4.386000E+01
-1.999319E-01	1.267365E-08	4.430000E+01
-1.999403E-01	-1.958661E-08	4.474000E+01
-1.999326E-01	-2.189092E-08	4.519000E+01
-1.999357E-01	2.265897E-08	4.563000E+01
-1.999372E-01	2.112276E-08	4.608000E+01
-1.999349E-01	-3.187622E-08	4.652000E+01
-1.999380E-01	7.296915E-09	4.696000E+01
-1.999372E-01	-3.110813E-08	4.740000E+01
-1.999334E-01	-3.494864E-08	4.784000E+01
-1.999342E-01	-3.571674E-08	4.829000E+01
-1.999334E-01	1.958655E-08	4.873000E+01
-1.999326E-01	1.344174E-08	4.918000E+01
-1.999342E-01	-3.802105E-08	4.962000E+01
-1.999357E-01	-4.800637E-08	5.007000E+01
-1.999334E-01	1.728226E-08	5.098000E+01
-1.999365E-01	-3.878914E-08	5.142000E+01
-1.999349E-01	-3.878914E-08	5.187000E+01
-1.999388E-01	-2.035473E-08	5.231000E+01
-1.999357E-01	1.420986E-08	5.275000E+01
-1.999395E-01	-3.110813E-08	5.319000E+01
-1.999365E-01	1.420986E-08	5.363000E+01
-1.999357E-01	1.036934E-08	5.408000E+01
-1.999372E-01	-2.112282E-08	5.452000E+01
-1.999349E-01	-2.035473E-08	5.497000E+01
-1.999365E-01	-5.645546E-08	5.541000E+01
-1.999372E-01	-3.878914E-08	5.584000E+01
-1.999357E-01	-4.186154E-08	5.629000E+01
-1.999365E-01	1.728226E-08	5.673000E+01
-1.999380E-01	1.420986E-08	5.718000E+01
-1.999372E-01	-4.877446E-08	5.762000E+01
-1.999411E-01	-4.186154E-08	5.807000E+01
-1.999334E-01	-4.570206E-08	5.851000E+01
-1.999334E-01	-2.342713E-08	5.896000E+01
-1.999349E-01	-4.647016E-08	5.939000E+01
-1.999334E-01	4.224512E-09	5.983000E+01
-1.999380E-01	-5.760790E-09	6.072000E+01
-1.999342E-01	-3.494864E-08	6.118000E+01
-1.999349E-01	-2.880382E-08	6.161000E+01
-1.999326E-01	-3.187622E-08	6.206000E+01
-1.999342E-01	-2.803572E-08	6.250000E+01
-1.999372E-01	-3.418053E-08	6.295000E+01
-1.999372E-01	1.958655E-08	6.339000E+01
-1.999357E-01	-2.189092E-08	6.383000E+01
-1.999365E-01	-1.497802E-08	6.428000E+01
-1.999365E-01	-3.264434E-08	6.471000E+01
-1.999349E-01	-3.418053E-08	6.516000E+01
-1.999357E-01	-2.342713E-08	6.560000E+01
-1.999395E-01	-2.649953E-08	6.605000E+01
-1.999380E-01	-1.920271E-09	6.649000E+01
-1.999357E-01	-3.456482E-09	6.694000E+01
-1.999365E-01	2.688300E-09	6.738000E+01
-1.999372E-01	-3.341243E-08	6.781000E+01
-1.999365E-01	4.992607E-09	6.826000E+01
-1.999334E-01	-3.648483E-08	6.870000E+01
-1.999395E-01	-3.571674E-08	6.915000E+01
-1.999319E-01	-2.112282E-08	6.959000E+01
-1.999342E-01	1.574605E-08	7.004000E+01
-1.999319E-01	2.035466E-08	7.093000E+01
-1.999334E-01	-8.065097E-09	7.136000E+01
-1.999380E-01	-4.109343E-08	7.180000E+01
-1.999350E-01	-1.920271E-09	7.225000E+01
-1.999342E-01	-2.496332E-08	7.269000E+01
-1.999365E-01	-2.573142E-08	7.314000E+01
-1.999326E-01	2.035466E-08	7.358000E+01
-1.999365E-01	1.805036E-08	7.403000E+01
-1.999319E-01	1.036934E-08	7.446000E+01
-1.999350E-01	1.497795E-08	7.491000E+01
-1.999380E-01	-1.805042E-08	7.535000E+01
-1.999380E-01	-2.419520E-08	7.579000E+01
-1.999342E-01	-2.265901E-08	7.624000E+01
-1.999357E-01	4.992629E-09	7.668000E+01
-1.999365E-01	3.840367E-10	7.713000E+01
-1.999311E-01	4.224512E-09	7.756000E+01
-1.999319E-01	-3.840585E-10	7.801000E+01
-1.999350E-01	5.760724E-09	7.845000E+01
-1.999365E-01	8.065031E-09	7.890000E+01
-1.999342E-01	-2.419520E-08	7.934000E+01
-1.999326E-01	1.497793E-08	7.978000E+01
-1.999326E-01	1.728224E-08	8.066000E+01
-1.999334E-01	-1.152197E-09	8.111000E+01
-1.999326E-01	1.805033E-08	8.155000E+01
-1.999357E-01	1.728224E-08	8.200000E+01
-1.999357E-01	-1.728232E-08	8.244000E+01
-1.999380E-01	-1.805042E-08	8.289000E+01
-1.999357E-01	-5.760811E-09	8.333000E+01
-1.999365E-01	2.189083E-08	8.376000E+01
-1.999349E-01	-3.456504E-09	8.421000E+01
-1.999357E-01	1.728224E-08	8.465000E+01
-1.999372E-01	1.728224E-08	8.510000E+01
-1.999365E-01	-1.881852E-08	8.554000E+01
-1.999342E-01	-1.805042E-08	8.599000E+01
-1.999395E-01	9.601222E-09	8.643000E+01
-1.999388E-01	6.528819E-09	8.688000E+01
-1.999349E-01	1.805033E-08	8.732000E+01
-1.999388E-01	-3.841021E-10	8.775000E+01
-1.999372E-01	1.574603E-08	8.820000E+01
-1.999342E-01	-1.728232E-08	8.864000E+01
-1.999365E-01	-1.190562E-08	8.909000E+01
-1.999326E-01	-3.841021E-10	8.953000E+01
-1.999342E-01	-2.688388E-09	8.998000E+01
-1.999334E-01	-6.528907E-09	9.000000E+01
