CORRW ASCII
  CorrWare for Windows: Version 3.5f
  Potentiostatic	[-0.37 Ref,50 Hour][default]	bias_-370mV_4.cor
  Date: 11-05-2019    Time: 20:53:28
   
   
  Open Circuit Potential (V): 0.0032
  Begin Information:          Cell Information
    Surface Area:             1
    Density:                  0
    Weight:                   0
    Polarity:                 0
    PolarityI:                0
    Corrosion Unit Type:      0
    Reference Type:           0
    Reference Potential:      0
    User-Defined Potential:   0
    Stern-Geary:              26
  End Information:            Cell Information
  Begin Pstat:                1287
    Pstat Title:              Instrument #1
    Booster Type:             0
    Booster Name:             None
    Current Range:            0
    Current Limit:            0
    Current LimitType:        0
    Sweep Type:               0
    Use Error Beep:           1
    Auxilary Type:            0
    iR Comp. Type:            0
    iR Ohms:                  0
    iR Time:                  27
    iR Ratio:                 255
    LP Filter Type:           2
    Drift Correction:         1
    Null Correction:          0
    Pstat Bandwidth Type:     2
    Gstat Bandwidth Type:     2
    External Input:           0
    SafetyMinV:               0
    SafetyMaxV:               10
    SafetyMinI:               0
    SafetyMaxI:               4
    SafetyMinQ:               0
    SafetyMaxQ:               1000
    SafetyMinT:               0
    SafetyMaxT:               50
    SafetyChT:                0
    SafetyMinVUse:            0
    SafetyMaxVUse:            0
    SafetyMinIUse:            0
    SafetyMaxIUse:            0
    SafetyMinQUse:            0
    SafetyMaxQUse:            0
    SafetyMinTUse:            0
    SafetyMaxTUse:            0
  End Pstat:                  1287
  Begin Experiment:           Potentiostatic	[-0.37 Ref,50 Hour][default]	bias_-370mV_4.cor
    Data File:                Z:\191101_Amezawa\fr_XAS\DPB2\700C_100%O2\Electrochem\bias_-370mV_4.cor
    Data Append:              0
    Comment Lines:            0
    Potential:                -0.37
    Potential Type:           1
    Total Time:               50
    Time Units:               2
    Time Marker:              -1
    Measure Rate Type:        1
    Measure Rate #1:          2000
    Measure Rate #2:          10
    Measure Rate #3:          0.1
    Measure Rate #4:          2
    Use Threshold:            0
    Threshold I_Min:          -15
    Threshold I_Max:          15
    Threshold Delta:          5
    Threshold Time:           60
    Copy AuxV:                0
    Axes Type:                1
    Use Custom Pstat:         0
  End Experiment:             Potentiostatic	[-0.37 Ref,50 Hour][default]	bias_-370mV_4.cor
  Data Points:                961
  E(Volts)	I(A/cm2)	T(Seconds)
End Comments
-3.532307E-01	-2.938497E-03	0.000000E+00
-3.703270E-01	-3.336963E-03	8.800000E-01
-3.703347E-01	-3.395290E-03	1.330000E+00
-3.703270E-01	-3.434584E-03	1.780000E+00
-3.703501E-01	-3.460371E-03	2.220000E+00
-3.703654E-01	-3.478176E-03	2.670000E+00
-3.703731E-01	-3.489918E-03	3.100000E+00
-3.703501E-01	-3.497823E-03	3.550000E+00
-3.703424E-01	-3.503502E-03	4.000000E+00
-3.703424E-01	-3.507570E-03	4.430000E+00
-3.703424E-01	-3.510870E-03	4.880000E+00
-3.703347E-01	-3.513479E-03	5.320000E+00
-3.703501E-01	-3.515628E-03	5.770000E+00
-3.703424E-01	-3.517393E-03	6.200000E+00
-3.703578E-01	-3.519082E-03	6.640000E+00
-3.703654E-01	-3.520693E-03	7.090000E+00
-3.703654E-01	-3.522075E-03	7.540000E+00
-3.703654E-01	-3.523380E-03	7.990000E+00
-3.703731E-01	-3.524838E-03	8.420000E+00
-3.703731E-01	-3.525452E-03	8.870000E+00
-3.703654E-01	-3.528291E-03	9.750000E+00
-3.703731E-01	-3.529519E-03	1.019000E+01
-3.703731E-01	-3.530824E-03	1.066000E+01
-3.703731E-01	-3.532205E-03	1.111000E+01
-3.703654E-01	-3.533510E-03	1.155000E+01
-3.703654E-01	-3.534814E-03	1.200000E+01
-3.703731E-01	-3.536196E-03	1.244000E+01
-3.703731E-01	-3.537424E-03	1.289000E+01
-3.703731E-01	-3.538728E-03	1.333000E+01
-3.703884E-01	-3.540110E-03	1.377000E+01
-3.703961E-01	-3.541338E-03	1.421000E+01
-3.703961E-01	-3.542642E-03	1.465000E+01
-3.704115E-01	-3.543794E-03	1.510000E+01
-3.704038E-01	-3.544868E-03	1.554000E+01
-3.703961E-01	-3.545789E-03	1.599000E+01
-3.703884E-01	-3.547094E-03	1.642000E+01
-3.703808E-01	-3.548322E-03	1.687000E+01
-3.703808E-01	-3.549780E-03	1.731000E+01
-3.703808E-01	-3.550931E-03	1.776000E+01
-3.703654E-01	-3.552082E-03	1.820000E+01
-3.703501E-01	-3.553080E-03	1.864000E+01
-3.703424E-01	-3.555689E-03	1.952000E+01
-3.703424E-01	-3.557071E-03	1.997000E+01
-3.703424E-01	-3.558145E-03	2.041000E+01
-3.703424E-01	-3.559373E-03	2.086000E+01
-3.703501E-01	-3.560601E-03	2.130000E+01
-3.703501E-01	-3.561829E-03	2.175000E+01
-3.703577E-01	-3.562980E-03	2.219000E+01
-3.703654E-01	-3.564131E-03	2.263000E+01
-3.703577E-01	-3.565129E-03	2.307000E+01
-3.703654E-01	-3.566434E-03	2.351000E+01
-3.703731E-01	-3.567662E-03	2.396000E+01
-3.703731E-01	-3.568660E-03	2.440000E+01
-3.703808E-01	-3.569811E-03	2.485000E+01
-3.703731E-01	-3.570962E-03	2.529000E+01
-3.703731E-01	-3.572190E-03	2.573000E+01
-3.703731E-01	-3.573341E-03	2.617000E+01
-3.703731E-01	-3.574492E-03	2.661000E+01
-3.703731E-01	-3.575567E-03	2.706000E+01
-3.703731E-01	-3.576718E-03	2.750000E+01
-3.703808E-01	-3.577715E-03	2.795000E+01
-3.703731E-01	-3.578713E-03	2.839000E+01
-3.703808E-01	-3.579865E-03	2.883000E+01
-3.703884E-01	-3.582090E-03	2.972000E+01
-3.703808E-01	-3.583165E-03	3.016000E+01
-3.703808E-01	-3.584162E-03	3.060000E+01
-3.703884E-01	-3.584930E-03	3.105000E+01
-3.703884E-01	-3.586004E-03	3.149000E+01
-3.703808E-01	-3.587079E-03	3.193000E+01
-3.703808E-01	-3.588230E-03	3.237000E+01
-3.703884E-01	-3.589381E-03	3.282000E+01
-3.703808E-01	-3.590225E-03	3.325000E+01
-3.703808E-01	-3.591223E-03	3.370000E+01
-3.703808E-01	-3.592144E-03	3.414000E+01
-3.703808E-01	-3.593065E-03	3.458000E+01
-3.703808E-01	-3.594293E-03	3.503000E+01
-3.703884E-01	-3.595367E-03	3.547000E+01
-3.703808E-01	-3.596288E-03	3.592000E+01
-3.703808E-01	-3.597209E-03	3.635000E+01
-3.703808E-01	-3.598053E-03	3.681000E+01
-3.703808E-01	-3.599205E-03	3.725000E+01
-3.703808E-01	-3.600279E-03	3.770000E+01
-3.703808E-01	-3.601430E-03	3.813000E+01
-3.703808E-01	-3.602351E-03	3.857000E+01
-3.703654E-01	-3.604039E-03	3.945000E+01
-3.703578E-01	-3.604960E-03	3.990000E+01
-3.703654E-01	-3.605728E-03	4.034000E+01
-3.703501E-01	-3.606572E-03	4.080000E+01
-3.703501E-01	-3.607493E-03	4.123000E+01
-3.703501E-01	-3.608337E-03	4.168000E+01
-3.703501E-01	-3.609181E-03	4.212000E+01
-3.703501E-01	-3.610026E-03	4.256000E+01
-3.703578E-01	-3.611023E-03	4.301000E+01
-3.703578E-01	-3.612021E-03	4.345000E+01
-3.703501E-01	-3.612789E-03	4.390000E+01
-3.703501E-01	-3.613786E-03	4.433000E+01
-3.703501E-01	-3.614554E-03	4.478000E+01
-3.703578E-01	-3.615475E-03	4.522000E+01
-3.703578E-01	-3.616396E-03	4.567000E+01
-3.703578E-01	-3.617240E-03	4.611000E+01
-3.703578E-01	-3.618161E-03	4.655000E+01
-3.703578E-01	-3.618775E-03	4.700000E+01
-3.703578E-01	-3.619619E-03	4.743000E+01
-3.703501E-01	-3.620386E-03	4.788000E+01
-3.703578E-01	-3.621077E-03	4.832000E+01
-3.703578E-01	-3.622689E-03	4.877000E+01
-3.703578E-01	-3.624301E-03	4.964000E+01
-3.703578E-01	-3.625222E-03	5.009000E+01
-3.703578E-01	-3.625912E-03	5.053000E+01
-3.703501E-01	-3.626603E-03	5.098000E+01
-3.703578E-01	-3.627371E-03	5.142000E+01
-3.703578E-01	-3.627908E-03	5.187000E+01
-3.703578E-01	-3.628752E-03	5.231000E+01
-3.703578E-01	-3.629673E-03	5.276000E+01
-3.703578E-01	-3.630517E-03	5.320000E+01
-3.703578E-01	-3.631208E-03	5.363000E+01
-3.703578E-01	-3.631822E-03	5.408000E+01
-3.703578E-01	-3.632666E-03	5.452000E+01
-3.703578E-01	-3.633357E-03	5.497000E+01
-3.703654E-01	-3.634125E-03	5.541000E+01
-3.703578E-01	-3.634661E-03	5.586000E+01
-3.703654E-01	-3.635736E-03	5.630000E+01
-3.703654E-01	-3.636580E-03	5.675000E+01
-3.703731E-01	-3.637271E-03	5.718000E+01
-3.703808E-01	-3.637885E-03	5.762000E+01
-3.703808E-01	-3.638729E-03	5.807000E+01
-3.703884E-01	-3.638729E-03	5.851000E+01
-3.703884E-01	-3.640034E-03	5.939000E+01
-3.703884E-01	-3.640724E-03	5.984000E+01
-3.703884E-01	-3.641415E-03	6.027000E+01
-3.703961E-01	-3.641875E-03	6.072000E+01
-3.703961E-01	-3.642643E-03	6.116000E+01
-3.703884E-01	-3.643334E-03	6.160000E+01
-3.703884E-01	-3.643947E-03	6.205000E+01
-3.703884E-01	-3.644638E-03	6.249000E+01
-3.703884E-01	-3.645252E-03	6.293000E+01
-3.703884E-01	-3.645866E-03	6.337000E+01
-3.703884E-01	-3.646480E-03	6.382000E+01
-3.703884E-01	-3.647171E-03	6.426000E+01
-3.703884E-01	-3.647631E-03	6.471000E+01
-3.703961E-01	-3.648169E-03	6.515000E+01
-3.703884E-01	-3.648936E-03	6.559000E+01
-3.703884E-01	-3.649550E-03	6.604000E+01
-3.703884E-01	-3.650164E-03	6.647000E+01
-3.703884E-01	-3.650624E-03	6.692000E+01
-3.703884E-01	-3.651315E-03	6.736000E+01
-3.703961E-01	-3.652006E-03	6.781000E+01
-3.703884E-01	-3.652620E-03	6.825000E+01
-3.703884E-01	-3.653157E-03	6.870000E+01
-3.703961E-01	-3.654232E-03	6.957000E+01
-3.703961E-01	-3.654692E-03	7.002000E+01
-3.703961E-01	-3.655306E-03	7.046000E+01
-3.703961E-01	-3.656073E-03	7.091000E+01
-3.703884E-01	-3.656534E-03	7.135000E+01
-3.703961E-01	-3.657148E-03	7.181000E+01
-3.703961E-01	-3.657685E-03	7.225000E+01
-3.703961E-01	-3.658299E-03	7.270000E+01
-3.703961E-01	-3.658683E-03	7.313000E+01
-3.703884E-01	-3.659067E-03	7.357000E+01
-3.703884E-01	-3.659604E-03	7.402000E+01
-3.703808E-01	-3.660141E-03	7.446000E+01
-3.703808E-01	-3.660678E-03	7.491000E+01
-3.703654E-01	-3.661215E-03	7.535000E+01
-3.703654E-01	-3.661753E-03	7.580000E+01
-3.703578E-01	-3.662290E-03	7.624000E+01
-3.703578E-01	-3.662750E-03	7.669000E+01
-3.703654E-01	-3.663211E-03	7.712000E+01
-3.703578E-01	-3.663671E-03	7.756000E+01
-3.703654E-01	-3.663979E-03	7.801000E+01
-3.703654E-01	-3.664515E-03	7.845000E+01
-3.703808E-01	-3.665053E-03	7.890000E+01
-3.703884E-01	-3.665974E-03	7.978000E+01
-3.703884E-01	-3.666434E-03	8.022000E+01
-3.703884E-01	-3.666741E-03	8.067000E+01
-3.703961E-01	-3.667432E-03	8.111000E+01
-3.703884E-01	-3.667816E-03	8.155000E+01
-3.703884E-01	-3.668353E-03	8.200000E+01
-3.703884E-01	-3.668737E-03	8.244000E+01
-3.703731E-01	-3.669120E-03	8.288000E+01
-3.703654E-01	-3.669427E-03	8.332000E+01
-3.703654E-01	-3.670041E-03	8.377000E+01
-3.703654E-01	-3.670272E-03	8.421000E+01
-3.703578E-01	-3.670732E-03	8.464000E+01
-3.703578E-01	-3.671269E-03	8.509000E+01
-3.703654E-01	-3.671807E-03	8.553000E+01
-3.703654E-01	-3.672190E-03	8.598000E+01
-3.703654E-01	-3.672651E-03	8.641000E+01
-3.703884E-01	-3.673265E-03	8.686000E+01
-3.703961E-01	-3.673725E-03	8.731000E+01
-3.703884E-01	-3.674032E-03	8.776000E+01
-3.703884E-01	-3.674646E-03	8.820000E+01
-3.703808E-01	-3.675567E-03	8.863000E+01
-3.703578E-01	-3.676258E-03	8.953000E+01
-3.703578E-01	-3.676335E-03	8.998000E+01
-3.703654E-01	-3.677026E-03	9.041000E+01
-3.703654E-01	-3.677409E-03	9.089000E+01
-3.703654E-01	-3.677639E-03	9.133000E+01
-3.703731E-01	-3.677946E-03	9.178000E+01
-3.703808E-01	-3.678637E-03	9.221000E+01
-3.703884E-01	-3.679251E-03	9.265000E+01
-3.703884E-01	-3.679635E-03	9.311000E+01
-3.703731E-01	-3.679788E-03	9.354000E+01
-3.703578E-01	-3.680325E-03	9.399000E+01
-3.703654E-01	-3.680479E-03	9.443000E+01
-3.703654E-01	-3.681016E-03	9.487000E+01
-3.703654E-01	-3.681400E-03	9.531000E+01
-3.703654E-01	-3.681707E-03	9.576000E+01
-3.703654E-01	-3.682091E-03	9.620000E+01
-3.703654E-01	-3.682474E-03	9.664000E+01
-3.703654E-01	-3.682935E-03	9.709000E+01
-3.703654E-01	-3.683088E-03	9.753000E+01
-3.703654E-01	-3.683318E-03	9.797000E+01
-3.703808E-01	-3.683779E-03	9.841000E+01
-3.703808E-01	-3.684086E-03	9.887000E+01
-3.703731E-01	-3.684547E-03	9.976000E+01
-3.703654E-01	-3.684700E-03	1.002000E+02
-3.703578E-01	-3.685161E-03	1.006300E+02
-3.703654E-01	-3.685467E-03	1.010800E+02
-3.703578E-01	-3.685851E-03	1.015200E+02
-3.703578E-01	-3.686235E-03	1.019700E+02
-3.703654E-01	-3.686542E-03	1.024100E+02
-3.703654E-01	-3.686926E-03	1.028600E+02
-3.703654E-01	-3.687156E-03	1.033000E+02
-3.703654E-01	-3.687540E-03	1.037500E+02
-3.703654E-01	-3.687847E-03	1.041800E+02
-3.703654E-01	-3.688153E-03	1.046200E+02
-3.703578E-01	-3.688307E-03	1.050700E+02
-3.703578E-01	-3.688614E-03	1.055100E+02
-3.703654E-01	-3.689074E-03	1.059600E+02
-3.703654E-01	-3.689228E-03	1.064000E+02
-3.703654E-01	-3.689688E-03	1.068500E+02
-3.703731E-01	-3.689688E-03	1.072800E+02
-3.703654E-01	-3.689842E-03	1.077300E+02
-3.703654E-01	-3.690226E-03	1.081700E+02
-3.703654E-01	-3.689918E-03	1.086100E+02
-3.703654E-01	-3.690533E-03	1.094900E+02
-3.703654E-01	-3.690763E-03	1.099400E+02
-3.703578E-01	-3.690993E-03	1.103700E+02
-3.703578E-01	-3.691223E-03	1.108200E+02
-3.703654E-01	-3.691760E-03	1.112600E+02
-3.703654E-01	-3.691914E-03	1.117100E+02
-3.703654E-01	-3.692221E-03	1.121500E+02
-3.703654E-01	-3.692528E-03	1.125900E+02
-3.703654E-01	-3.692835E-03	1.130400E+02
-3.703654E-01	-3.693142E-03	1.134800E+02
-3.703578E-01	-3.693372E-03	1.139300E+02
-3.703654E-01	-3.693449E-03	1.143700E+02
-3.703654E-01	-3.693679E-03	1.148200E+02
-3.703578E-01	-3.693833E-03	1.152600E+02
-3.703654E-01	-3.694216E-03	1.157100E+02
-3.703654E-01	-3.694600E-03	1.161400E+02
-3.703654E-01	-3.694754E-03	1.165800E+02
-3.703654E-01	-3.695137E-03	1.170300E+02
-3.703654E-01	-3.695137E-03	1.174700E+02
-3.703654E-01	-3.695444E-03	1.179200E+02
-3.703731E-01	-3.695675E-03	1.183600E+02
-3.703654E-01	-3.695981E-03	1.188100E+02
-3.703654E-01	-3.696365E-03	1.196900E+02
-3.703654E-01	-3.696826E-03	1.201300E+02
-3.703731E-01	-3.696979E-03	1.205700E+02
-3.703654E-01	-3.697286E-03	1.210200E+02
-3.703578E-01	-3.697440E-03	1.214600E+02
-3.703654E-01	-3.697670E-03	1.219100E+02
-3.703654E-01	-3.697823E-03	1.223500E+02
-3.703654E-01	-3.698054E-03	1.227900E+02
-3.703654E-01	-3.698284E-03	1.232300E+02
-3.703731E-01	-3.698514E-03	1.236800E+02
-3.703654E-01	-3.698745E-03	1.241200E+02
-3.703654E-01	-3.698974E-03	1.245600E+02
-3.703654E-01	-3.699051E-03	1.250100E+02
-3.703654E-01	-3.699205E-03	1.254400E+02
-3.703654E-01	-3.699435E-03	1.258900E+02
-3.703654E-01	-3.699665E-03	1.263300E+02
-3.703654E-01	-3.699896E-03	1.267800E+02
-3.703654E-01	-3.700049E-03	1.272200E+02
-3.703654E-01	-3.700433E-03	1.276700E+02
-3.703654E-01	-3.700586E-03	1.281100E+02
-3.703654E-01	-3.701047E-03	1.285500E+02
-3.703654E-01	-3.701354E-03	1.294300E+02
-3.703654E-01	-3.701354E-03	1.298800E+02
-3.703654E-01	-3.701737E-03	1.303200E+02
-3.703578E-01	-3.702044E-03	1.307700E+02
-3.703654E-01	-3.702198E-03	1.312100E+02
-3.703654E-01	-3.702351E-03	1.316500E+02
-3.703654E-01	-3.702582E-03	1.320900E+02
-3.703654E-01	-3.702812E-03	1.325300E+02
-3.703654E-01	-3.702888E-03	1.329800E+02
-3.703654E-01	-3.702965E-03	1.334200E+02
-3.703654E-01	-3.702965E-03	1.338700E+02
-3.703731E-01	-3.703196E-03	1.343100E+02
-3.703731E-01	-3.703426E-03	1.347600E+02
-3.703654E-01	-3.703502E-03	1.351900E+02
-3.703654E-01	-3.703656E-03	1.356300E+02
-3.703654E-01	-3.703963E-03	1.360800E+02
-3.703654E-01	-3.704040E-03	1.365200E+02
-3.703654E-01	-3.704193E-03	1.369700E+02
-3.703654E-01	-3.704270E-03	1.374100E+02
-3.703654E-01	-3.704347E-03	1.378600E+02
-3.703654E-01	-3.704500E-03	1.383000E+02
-3.703578E-01	-3.705422E-03	1.387500E+02
-3.703578E-01	-3.705575E-03	1.396300E+02
-3.703654E-01	-3.705729E-03	1.400800E+02
-3.703654E-01	-3.705959E-03	1.405200E+02
-3.703654E-01	-3.706266E-03	1.409700E+02
-3.703654E-01	-3.706189E-03	1.414100E+02
-3.703578E-01	-3.706343E-03	1.418600E+02
-3.703654E-01	-3.706496E-03	1.423000E+02
-3.703654E-01	-3.706726E-03	1.427500E+02
-3.703731E-01	-3.706956E-03	1.431900E+02
-3.703654E-01	-3.707110E-03	1.436300E+02
-3.703654E-01	-3.707263E-03	1.440800E+02
-3.703654E-01	-3.707263E-03	1.445200E+02
-3.703654E-01	-3.707340E-03	1.449700E+02
-3.703654E-01	-3.707494E-03	1.454100E+02
-3.703654E-01	-3.707570E-03	1.458600E+02
-3.703654E-01	-3.707801E-03	1.462900E+02
-3.703654E-01	-3.708031E-03	1.467400E+02
-3.703654E-01	-3.708184E-03	1.471800E+02
-3.703578E-01	-3.708184E-03	1.476200E+02
-3.703654E-01	-3.708491E-03	1.480700E+02
-3.703654E-01	-3.707954E-03	1.485100E+02
-3.703578E-01	-3.708031E-03	1.493900E+02
-3.703654E-01	-3.708184E-03	1.498300E+02
-3.703654E-01	-3.708338E-03	1.502700E+02
-3.703654E-01	-3.708491E-03	1.507200E+02
-3.703654E-01	-3.708568E-03	1.511600E+02
-3.703654E-01	-3.708568E-03	1.516000E+02
-3.703654E-01	-3.708644E-03	1.520500E+02
-3.703654E-01	-3.708721E-03	1.524900E+02
-3.703654E-01	-3.708721E-03	1.529400E+02
-3.703578E-01	-3.708798E-03	1.533700E+02
-3.703654E-01	-3.709105E-03	1.538200E+02
-3.703654E-01	-3.709412E-03	1.542600E+02
-3.703654E-01	-3.709489E-03	1.547200E+02
-3.703578E-01	-3.709642E-03	1.551500E+02
-3.703654E-01	-3.709642E-03	1.555900E+02
-3.703654E-01	-3.709795E-03	1.560400E+02
-3.703654E-01	-3.709719E-03	1.564700E+02
-3.703654E-01	-3.709873E-03	1.569200E+02
-3.703654E-01	-3.710026E-03	1.573600E+02
-3.703654E-01	-3.710103E-03	1.578100E+02
-3.703654E-01	-3.710103E-03	1.582500E+02
-3.703731E-01	-3.710179E-03	1.587000E+02
-3.703731E-01	-3.710640E-03	1.595700E+02
-3.703731E-01	-3.710716E-03	1.600200E+02
-3.703731E-01	-3.710870E-03	1.604600E+02
-3.703731E-01	-3.710794E-03	1.609100E+02
-3.703731E-01	-3.711024E-03	1.613500E+02
-3.703731E-01	-3.711331E-03	1.617900E+02
-3.703731E-01	-3.711331E-03	1.622300E+02
-3.703731E-01	-3.711484E-03	1.626800E+02
-3.703808E-01	-3.711561E-03	1.631200E+02
-3.703731E-01	-3.711638E-03	1.635600E+02
-3.703731E-01	-3.711714E-03	1.640100E+02
-3.703731E-01	-3.711945E-03	1.644500E+02
-3.703808E-01	-3.712098E-03	1.649000E+02
-3.703808E-01	-3.712098E-03	1.653300E+02
-3.703731E-01	-3.712098E-03	1.657800E+02
-3.703731E-01	-3.712252E-03	1.662200E+02
-3.703731E-01	-3.712559E-03	1.666700E+02
-3.703731E-01	-3.712789E-03	1.671100E+02
-3.703731E-01	-3.712942E-03	1.675500E+02
-3.703731E-01	-3.712942E-03	1.680000E+02
-3.703731E-01	-3.713096E-03	1.684400E+02
-3.703654E-01	-3.713096E-03	1.688800E+02
-3.703654E-01	-3.713249E-03	1.697700E+02
-3.703731E-01	-3.713403E-03	1.702000E+02
-3.703731E-01	-3.713326E-03	1.706700E+02
-3.703654E-01	-3.713326E-03	1.711200E+02
-3.703654E-01	-3.713479E-03	1.715500E+02
-3.703731E-01	-3.713633E-03	1.720000E+02
-3.703731E-01	-3.713863E-03	1.724400E+02
-3.703731E-01	-3.714017E-03	1.728900E+02
-3.703731E-01	-3.714093E-03	1.733300E+02
-3.703731E-01	-3.714324E-03	1.737800E+02
-3.703731E-01	-3.714324E-03	1.742200E+02
-3.703654E-01	-3.714401E-03	1.746700E+02
-3.703731E-01	-3.714324E-03	1.751100E+02
-3.703731E-01	-3.714324E-03	1.755500E+02
-3.703654E-01	-3.714477E-03	1.759900E+02
-3.703654E-01	-3.714477E-03	1.764300E+02
-3.703731E-01	-3.714554E-03	1.768800E+02
-3.703654E-01	-3.714784E-03	1.773200E+02
-3.703731E-01	-3.715014E-03	1.777700E+02
-3.703654E-01	-3.714861E-03	1.782100E+02
-3.703731E-01	-3.715629E-03	1.786500E+02
-3.703654E-01	-3.715629E-03	1.795400E+02
-3.703654E-01	-3.715629E-03	1.799900E+02
-3.703654E-01	-3.715552E-03	1.804300E+02
-3.703654E-01	-3.715859E-03	1.808800E+02
-3.703731E-01	-3.716012E-03	1.813200E+02
-3.703654E-01	-3.715936E-03	1.817700E+02
-3.703654E-01	-3.716166E-03	1.822000E+02
-3.703654E-01	-3.716396E-03	1.826400E+02
-3.703654E-01	-3.716396E-03	1.830800E+02
-3.703654E-01	-3.716473E-03	1.835200E+02
-3.703654E-01	-3.716549E-03	1.839800E+02
-3.703654E-01	-3.716473E-03	1.844200E+02
-3.703731E-01	-3.716549E-03	1.848700E+02
-3.703654E-01	-3.716549E-03	1.853000E+02
-3.703731E-01	-3.716703E-03	1.857500E+02
-3.703654E-01	-3.716856E-03	1.861900E+02
-3.703654E-01	-3.716780E-03	1.866200E+02
-3.703731E-01	-3.716934E-03	1.870700E+02
-3.703654E-01	-3.717010E-03	1.875100E+02
-3.703731E-01	-3.717087E-03	1.879600E+02
-3.703731E-01	-3.716856E-03	1.884100E+02
-3.703654E-01	-3.716089E-03	1.888500E+02
-3.703654E-01	-3.716319E-03	1.897400E+02
-3.703731E-01	-3.716319E-03	1.901800E+02
-3.703654E-01	-3.716396E-03	1.906200E+02
-3.703654E-01	-3.716473E-03	1.910700E+02
-3.703731E-01	-3.716626E-03	1.915000E+02
-3.703654E-01	-3.716856E-03	1.919500E+02
-3.703654E-01	-3.717010E-03	1.923900E+02
-3.703654E-01	-3.716933E-03	1.928400E+02
-3.703654E-01	-3.717087E-03	1.932800E+02
-3.703654E-01	-3.717163E-03	1.937300E+02
-3.703654E-01	-3.717163E-03	1.941700E+02
-3.703654E-01	-3.717317E-03	1.946100E+02
-3.703654E-01	-3.717547E-03	1.950600E+02
-3.703654E-01	-3.717701E-03	1.955000E+02
-3.703654E-01	-3.717624E-03	1.959500E+02
-3.703731E-01	-3.717777E-03	1.963800E+02
-3.703731E-01	-3.717931E-03	1.968300E+02
-3.703654E-01	-3.717854E-03	1.972700E+02
-3.703654E-01	-3.718007E-03	1.977200E+02
-3.703654E-01	-3.718007E-03	1.981600E+02
-3.703654E-01	-3.718852E-03	1.986000E+02
-3.703654E-01	-3.719082E-03	1.994900E+02
-3.703654E-01	-3.718929E-03	1.999400E+02
-3.703654E-01	-3.719006E-03	2.003700E+02
-3.703654E-01	-3.719313E-03	2.008200E+02
-3.703654E-01	-3.719159E-03	2.012600E+02
-3.703654E-01	-3.719082E-03	2.017100E+02
-3.703654E-01	-3.719082E-03	2.021500E+02
-3.703654E-01	-3.719082E-03	2.025900E+02
-3.703654E-01	-3.718929E-03	2.030400E+02
-3.703654E-01	-3.718929E-03	2.034800E+02
-3.703578E-01	-3.718929E-03	2.039300E+02
-3.703654E-01	-3.718929E-03	2.043700E+02
-3.703578E-01	-3.718852E-03	2.048200E+02
-3.703654E-01	-3.718852E-03	2.052500E+02
-3.703578E-01	-3.718929E-03	2.057000E+02
-3.703578E-01	-3.718929E-03	2.061400E+02
-3.703654E-01	-3.719236E-03	2.065800E+02
-3.703654E-01	-3.719159E-03	2.070300E+02
-3.703654E-01	-3.719006E-03	2.074700E+02
-3.703654E-01	-3.719082E-03	2.079200E+02
-3.703654E-01	-3.719159E-03	2.083500E+02
-3.703731E-01	-3.718238E-03	2.088000E+02
-3.703654E-01	-3.718391E-03	2.096800E+02
-3.703731E-01	-3.718391E-03	2.101200E+02
-3.703808E-01	-3.718391E-03	2.105600E+02
-3.703731E-01	-3.718545E-03	2.110100E+02
-3.703731E-01	-3.718622E-03	2.114500E+02
-3.703731E-01	-3.718698E-03	2.119000E+02
-3.703731E-01	-3.718698E-03	2.123300E+02
-3.703731E-01	-3.718698E-03	2.127800E+02
-3.703731E-01	-3.718698E-03	2.132300E+02
-3.703808E-01	-3.718775E-03	2.136800E+02
-3.703731E-01	-3.718852E-03	2.141200E+02
-3.703731E-01	-3.718622E-03	2.145500E+02
-3.703731E-01	-3.718545E-03	2.150000E+02
-3.703731E-01	-3.718391E-03	2.154400E+02
-3.703731E-01	-3.718545E-03	2.158900E+02
-3.703731E-01	-3.718468E-03	2.163300E+02
-3.703654E-01	-3.718545E-03	2.167800E+02
-3.703731E-01	-3.718698E-03	2.172200E+02
-3.703731E-01	-3.718698E-03	2.176500E+02
-3.703731E-01	-3.718852E-03	2.181000E+02
-3.703654E-01	-3.719466E-03	2.185400E+02
-3.703654E-01	-3.719543E-03	2.194300E+02
-3.703731E-01	-3.719696E-03	2.198800E+02
-3.703731E-01	-3.719773E-03	2.203200E+02
-3.703731E-01	-3.719773E-03	2.207700E+02
-3.703808E-01	-3.719620E-03	2.212000E+02
-3.703808E-01	-3.719696E-03	2.216400E+02
-3.703731E-01	-3.719850E-03	2.220900E+02
-3.703731E-01	-3.719773E-03	2.225300E+02
-3.703731E-01	-3.719773E-03	2.229800E+02
-3.703731E-01	-3.719773E-03	2.234200E+02
-3.703808E-01	-3.719850E-03	2.238700E+02
-3.703808E-01	-3.719850E-03	2.243100E+02
-3.703731E-01	-3.719773E-03	2.247500E+02
-3.703731E-01	-3.719773E-03	2.251900E+02
-3.703731E-01	-3.719696E-03	2.256300E+02
-3.703731E-01	-3.719620E-03	2.260800E+02
-3.703731E-01	-3.719696E-03	2.265200E+02
-3.703731E-01	-3.719620E-03	2.269700E+02
-3.703731E-01	-3.719466E-03	2.274100E+02
-3.703731E-01	-3.719466E-03	2.278500E+02
-3.703731E-01	-3.719313E-03	2.282900E+02
-3.703654E-01	-3.718622E-03	2.287400E+02
-3.703578E-01	-3.718545E-03	2.296100E+02
-3.703654E-01	-3.718468E-03	2.300500E+02
-3.703654E-01	-3.718622E-03	2.304900E+02
-3.703654E-01	-3.718622E-03	2.309400E+02
-3.703654E-01	-3.718391E-03	2.313800E+02
-3.703654E-01	-3.718545E-03	2.318400E+02
-3.703654E-01	-3.718622E-03	2.322800E+02
-3.703654E-01	-3.718622E-03	2.327300E+02
-3.703654E-01	-3.718622E-03	2.331700E+02
-3.703654E-01	-3.718622E-03	2.336000E+02
-3.703654E-01	-3.718545E-03	2.340500E+02
-3.703578E-01	-3.718698E-03	2.344900E+02
-3.703654E-01	-3.718775E-03	2.349400E+02
-3.703654E-01	-3.718775E-03	2.353800E+02
-3.703731E-01	-3.718698E-03	2.358300E+02
-3.703654E-01	-3.718698E-03	2.362700E+02
-3.703654E-01	-3.718622E-03	2.367200E+02
-3.703654E-01	-3.718698E-03	2.371600E+02
-3.703578E-01	-3.718698E-03	2.376000E+02
-3.703654E-01	-3.718775E-03	2.380500E+02
-3.703578E-01	-3.718698E-03	2.384800E+02
-3.703654E-01	-3.718545E-03	2.393600E+02
-3.703654E-01	-3.718391E-03	2.398100E+02
-3.703731E-01	-3.718698E-03	2.402500E+02
-3.703654E-01	-3.718622E-03	2.407000E+02
-3.703654E-01	-3.718545E-03	2.411300E+02
-3.703654E-01	-3.718391E-03	2.415700E+02
-3.703654E-01	-3.718468E-03	2.420200E+02
-3.703578E-01	-3.718545E-03	2.424600E+02
-3.703654E-01	-3.718622E-03	2.429100E+02
-3.703654E-01	-3.718622E-03	2.433500E+02
-3.703654E-01	-3.718468E-03	2.438000E+02
-3.703578E-01	-3.718391E-03	2.442300E+02
-3.703654E-01	-3.718468E-03	2.446800E+02
-3.703654E-01	-3.718238E-03	2.451200E+02
-3.703654E-01	-3.718391E-03	2.455700E+02
-3.703654E-01	-3.718468E-03	2.460200E+02
-3.703654E-01	-3.718391E-03	2.464500E+02
-3.703654E-01	-3.718468E-03	2.469000E+02
-3.703654E-01	-3.718698E-03	2.473400E+02
-3.703731E-01	-3.718545E-03	2.477900E+02
-3.703654E-01	-3.718545E-03	2.482300E+02
-3.703731E-01	-3.718545E-03	2.486800E+02
-3.703654E-01	-3.718161E-03	2.495500E+02
-3.703654E-01	-3.718084E-03	2.500000E+02
-3.703578E-01	-3.718314E-03	2.504400E+02
-3.703654E-01	-3.718084E-03	2.509200E+02
-3.703654E-01	-3.718391E-03	2.513600E+02
-3.703654E-01	-3.718391E-03	2.518000E+02
-3.703654E-01	-3.718391E-03	2.522400E+02
-3.703731E-01	-3.718391E-03	2.526900E+02
-3.703578E-01	-3.718314E-03	2.531300E+02
-3.703654E-01	-3.718161E-03	2.535700E+02
-3.703654E-01	-3.718161E-03	2.540200E+02
-3.703654E-01	-3.718007E-03	2.544600E+02
-3.703654E-01	-3.718007E-03	2.549000E+02
-3.703654E-01	-3.717777E-03	2.553400E+02
-3.703731E-01	-3.717777E-03	2.557900E+02
-3.703654E-01	-3.717931E-03	2.562300E+02
-3.703654E-01	-3.718238E-03	2.566800E+02
-3.703654E-01	-3.718084E-03	2.571200E+02
-3.703654E-01	-3.717854E-03	2.575600E+02
-3.703654E-01	-3.718007E-03	2.580000E+02
-3.703654E-01	-3.717854E-03	2.584400E+02
-3.703731E-01	-3.718315E-03	2.588900E+02
-3.703731E-01	-3.718545E-03	2.597700E+02
-3.703731E-01	-3.718468E-03	2.602100E+02
-3.703808E-01	-3.718545E-03	2.606500E+02
-3.703731E-01	-3.718775E-03	2.611000E+02
-3.703731E-01	-3.718698E-03	2.615400E+02
-3.703808E-01	-3.718698E-03	2.619900E+02
-3.703731E-01	-3.718698E-03	2.624300E+02
-3.703808E-01	-3.718775E-03	2.628800E+02
-3.703731E-01	-3.718775E-03	2.633200E+02
-3.703731E-01	-3.718622E-03	2.637600E+02
-3.703731E-01	-3.718852E-03	2.642000E+02
-3.703731E-01	-3.718852E-03	2.646400E+02
-3.703808E-01	-3.718698E-03	2.650900E+02
-3.703731E-01	-3.718545E-03	2.655300E+02
-3.703731E-01	-3.718545E-03	2.659800E+02
-3.703731E-01	-3.718468E-03	2.664100E+02
-3.703808E-01	-3.718468E-03	2.668600E+02
-3.703731E-01	-3.718468E-03	2.673000E+02
-3.703808E-01	-3.718545E-03	2.677500E+02
-3.703731E-01	-3.718545E-03	2.681900E+02
-3.703654E-01	-3.717701E-03	2.686300E+02
-3.703654E-01	-3.717547E-03	2.695100E+02
-3.703654E-01	-3.717470E-03	2.699600E+02
-3.703654E-01	-3.717547E-03	2.704000E+02
-3.703654E-01	-3.717394E-03	2.708500E+02
-3.703731E-01	-3.717240E-03	2.712900E+02
-3.703731E-01	-3.717240E-03	2.717400E+02
-3.703731E-01	-3.717240E-03	2.721800E+02
-3.703654E-01	-3.717240E-03	2.726200E+02
-3.703731E-01	-3.717317E-03	2.730600E+02
-3.703654E-01	-3.717087E-03	2.735000E+02
-3.703654E-01	-3.717163E-03	2.739500E+02
-3.703731E-01	-3.717163E-03	2.743900E+02
-3.703731E-01	-3.717163E-03	2.748400E+02
-3.703654E-01	-3.717163E-03	2.752800E+02
-3.703731E-01	-3.717240E-03	2.757300E+02
-3.703654E-01	-3.717240E-03	2.761700E+02
-3.703654E-01	-3.717010E-03	2.766000E+02
-3.703654E-01	-3.717087E-03	2.770500E+02
-3.703731E-01	-3.717087E-03	2.774900E+02
-3.703654E-01	-3.717010E-03	2.779400E+02
-3.703731E-01	-3.716856E-03	2.783800E+02
-3.703731E-01	-3.716856E-03	2.788300E+02
-3.703731E-01	-3.716780E-03	2.797200E+02
-3.703731E-01	-3.716626E-03	2.801600E+02
-3.703731E-01	-3.716780E-03	2.805900E+02
-3.703731E-01	-3.716780E-03	2.810400E+02
-3.703731E-01	-3.716703E-03	2.814800E+02
-3.703731E-01	-3.716703E-03	2.819300E+02
-3.703731E-01	-3.716780E-03	2.823700E+02
-3.703731E-01	-3.716780E-03	2.828200E+02
-3.703731E-01	-3.716703E-03	2.832600E+02
-3.703731E-01	-3.716396E-03	2.837000E+02
-3.703731E-01	-3.716243E-03	2.841400E+02
-3.703731E-01	-3.716396E-03	2.845800E+02
-3.703731E-01	-3.716319E-03	2.850300E+02
-3.703731E-01	-3.716396E-03	2.854700E+02
-3.703808E-01	-3.716319E-03	2.859200E+02
-3.703808E-01	-3.716396E-03	2.863600E+02
-3.703808E-01	-3.716243E-03	2.868000E+02
-3.703731E-01	-3.716243E-03	2.872400E+02
-3.703808E-01	-3.716319E-03	2.876900E+02
-3.703731E-01	-3.716243E-03	2.881300E+02
-3.703731E-01	-3.716780E-03	2.885700E+02
-3.703654E-01	-3.716626E-03	2.894600E+02
-3.703654E-01	-3.716780E-03	2.899000E+02
-3.703654E-01	-3.716550E-03	2.903400E+02
-3.703654E-01	-3.716550E-03	2.907900E+02
-3.703654E-01	-3.716473E-03	2.912300E+02
-3.703654E-01	-3.716320E-03	2.916800E+02
-3.703731E-01	-3.716473E-03	2.921200E+02
-3.703654E-01	-3.716396E-03	2.925600E+02
-3.703731E-01	-3.716550E-03	2.930000E+02
-3.703654E-01	-3.716703E-03	2.934400E+02
-3.703654E-01	-3.716626E-03	2.938900E+02
-3.703731E-01	-3.716703E-03	2.943300E+02
-3.703731E-01	-3.716550E-03	2.947800E+02
-3.703654E-01	-3.716473E-03	2.952200E+02
-3.703654E-01	-3.716320E-03	2.956700E+02
-3.703654E-01	-3.716396E-03	2.961100E+02
-3.703731E-01	-3.716320E-03	2.965500E+02
-3.703654E-01	-3.716396E-03	2.970000E+02
-3.703654E-01	-3.716243E-03	2.974400E+02
-3.703654E-01	-3.716166E-03	2.978900E+02
-3.703654E-01	-3.716166E-03	2.983300E+02
-3.703654E-01	-3.715475E-03	2.987800E+02
-3.703654E-01	-3.715321E-03	2.996500E+02
-3.703654E-01	-3.715245E-03	3.001000E+02
-3.703654E-01	-3.715245E-03	3.005400E+02
-3.703654E-01	-3.715245E-03	3.009900E+02
-3.703654E-01	-3.715091E-03	3.014300E+02
-3.703654E-01	-3.715014E-03	3.018800E+02
-3.703654E-01	-3.715014E-03	3.023100E+02
-3.703654E-01	-3.715014E-03	3.027600E+02
-3.703654E-01	-3.715245E-03	3.032000E+02
-3.703654E-01	-3.715091E-03	3.036400E+02
-3.703654E-01	-3.714861E-03	3.040900E+02
-3.703654E-01	-3.714784E-03	3.045300E+02
-3.703654E-01	-3.714861E-03	3.049800E+02
-3.703654E-01	-3.714708E-03	3.054100E+02
-3.703654E-01	-3.714708E-03	3.058600E+02
-3.703731E-01	-3.714708E-03	3.063000E+02
-3.703654E-01	-3.714784E-03	3.067500E+02
-3.703654E-01	-3.714784E-03	3.071900E+02
-3.703731E-01	-3.714477E-03	3.076200E+02
-3.703654E-01	-3.714401E-03	3.080700E+02
-3.703654E-01	-3.714324E-03	3.085100E+02
-3.703578E-01	-3.714247E-03	3.093900E+02
-3.703654E-01	-3.714171E-03	3.098400E+02
-3.703654E-01	-3.714247E-03	3.102800E+02
-3.703654E-01	-3.714171E-03	3.107300E+02
-3.703654E-01	-3.714093E-03	3.111700E+02
-3.703654E-01	-3.714171E-03	3.116100E+02
-3.703731E-01	-3.714093E-03	3.120600E+02
-3.703731E-01	-3.714017E-03	3.124900E+02
-3.703654E-01	-3.714093E-03	3.129400E+02
-3.703654E-01	-3.713940E-03	3.133800E+02
-3.703654E-01	-3.714017E-03	3.138300E+02
-3.703654E-01	-3.714093E-03	3.142700E+02
-3.703654E-01	-3.713786E-03	3.147200E+02
-3.703654E-01	-3.713863E-03	3.151600E+02
-3.703654E-01	-3.713786E-03	3.155900E+02
-3.703731E-01	-3.713633E-03	3.160500E+02
-3.703654E-01	-3.713633E-03	3.164900E+02
-3.703654E-01	-3.713633E-03	3.169400E+02
-3.703654E-01	-3.713633E-03	3.173700E+02
-3.703654E-01	-3.713479E-03	3.178200E+02
-3.703654E-01	-3.713710E-03	3.182600E+02
-3.703654E-01	-3.714171E-03	3.187000E+02
-3.703654E-01	-3.713940E-03	3.195800E+02
-3.703731E-01	-3.713863E-03	3.200300E+02
-3.703654E-01	-3.713710E-03	3.204700E+02
-3.703731E-01	-3.713710E-03	3.209200E+02
-3.703654E-01	-3.713479E-03	3.213500E+02
-3.703654E-01	-3.713326E-03	3.218000E+02
-3.703654E-01	-3.713556E-03	3.222400E+02
-3.703731E-01	-3.713556E-03	3.226900E+02
-3.703654E-01	-3.713250E-03	3.231300E+02
-3.703731E-01	-3.713250E-03	3.235700E+02
-3.703654E-01	-3.713403E-03	3.240200E+02
-3.703731E-01	-3.713403E-03	3.244500E+02
-3.703654E-01	-3.713479E-03	3.249100E+02
-3.703654E-01	-3.713326E-03	3.253500E+02
-3.703654E-01	-3.713173E-03	3.258000E+02
-3.703654E-01	-3.713173E-03	3.262400E+02
-3.703654E-01	-3.713173E-03	3.266900E+02
-3.703654E-01	-3.713326E-03	3.271300E+02
-3.703654E-01	-3.713173E-03	3.275700E+02
-3.703654E-01	-3.713173E-03	3.280200E+02
-3.703731E-01	-3.713173E-03	3.284500E+02
-3.703654E-01	-3.712712E-03	3.289000E+02
-3.703654E-01	-3.712482E-03	3.297900E+02
-3.703731E-01	-3.712405E-03	3.302200E+02
-3.703654E-01	-3.712328E-03	3.307000E+02
-3.703654E-01	-3.712098E-03	3.311400E+02
-3.703654E-01	-3.712175E-03	3.315800E+02
-3.703654E-01	-3.712175E-03	3.320300E+02
-3.703731E-01	-3.712098E-03	3.324700E+02
-3.703654E-01	-3.712175E-03	3.329200E+02
-3.703654E-01	-3.711945E-03	3.333500E+02
-3.703654E-01	-3.711791E-03	3.338000E+02
-3.703654E-01	-3.711791E-03	3.342400E+02
-3.703654E-01	-3.711714E-03	3.346900E+02
-3.703731E-01	-3.711484E-03	3.351300E+02
-3.703654E-01	-3.711561E-03	3.355700E+02
-3.703654E-01	-3.711791E-03	3.360200E+02
-3.703654E-01	-3.711638E-03	3.364600E+02
-3.703654E-01	-3.711407E-03	3.369000E+02
-3.703654E-01	-3.711331E-03	3.373400E+02
-3.703578E-01	-3.711331E-03	3.377900E+02
-3.703654E-01	-3.711484E-03	3.382300E+02
-3.703654E-01	-3.712098E-03	3.386800E+02
-3.703654E-01	-3.712022E-03	3.395600E+02
-3.703654E-01	-3.712175E-03	3.400100E+02
-3.703654E-01	-3.711868E-03	3.404400E+02
-3.703654E-01	-3.711792E-03	3.408900E+02
-3.703731E-01	-3.711868E-03	3.413400E+02
-3.703654E-01	-3.711792E-03	3.417900E+02
-3.703731E-01	-3.711868E-03	3.422200E+02
-3.703731E-01	-3.711792E-03	3.426700E+02
-3.703654E-01	-3.711714E-03	3.431100E+02
-3.703654E-01	-3.711485E-03	3.435500E+02
-3.703731E-01	-3.711254E-03	3.440000E+02
-3.703578E-01	-3.711254E-03	3.444400E+02
-3.703654E-01	-3.710947E-03	3.448900E+02
-3.703654E-01	-3.711101E-03	3.453200E+02
-3.703654E-01	-3.711024E-03	3.457700E+02
-3.703654E-01	-3.710947E-03	3.462100E+02
-3.703578E-01	-3.710870E-03	3.466500E+02
-3.703654E-01	-3.711024E-03	3.471000E+02
-3.703654E-01	-3.711101E-03	3.475400E+02
-3.703654E-01	-3.710794E-03	3.479900E+02
-3.703654E-01	-3.710794E-03	3.484200E+02
-3.703654E-01	-3.709949E-03	3.488700E+02
-3.703654E-01	-3.709719E-03	3.497500E+02
-3.703654E-01	-3.709796E-03	3.501900E+02
-3.703654E-01	-3.709642E-03	3.506300E+02
-3.703654E-01	-3.709489E-03	3.510900E+02
-3.703578E-01	-3.709489E-03	3.515200E+02
-3.703654E-01	-3.709489E-03	3.519700E+02
-3.703654E-01	-3.709489E-03	3.524100E+02
-3.703654E-01	-3.709259E-03	3.528600E+02
-3.703578E-01	-3.709335E-03	3.533000E+02
-3.703654E-01	-3.709335E-03	3.537500E+02
-3.703654E-01	-3.709259E-03	3.541900E+02
-3.703654E-01	-3.709028E-03	3.546200E+02
-3.703578E-01	-3.709028E-03	3.550700E+02
-3.703654E-01	-3.708952E-03	3.555100E+02
-3.703654E-01	-3.708875E-03	3.559600E+02
-3.703654E-01	-3.708952E-03	3.564000E+02
-3.703578E-01	-3.708875E-03	3.568500E+02
-3.703654E-01	-3.708721E-03	3.572900E+02
-3.703578E-01	-3.708721E-03	3.577400E+02
-3.703654E-01	-3.708798E-03	3.581800E+02
-3.703654E-01	-3.708798E-03	3.586100E+02
-3.703578E-01	-3.708798E-03	3.595000E+02
-3.703654E-01	-3.708721E-03	3.599500E+02
-3.703654E-01	-3.708875E-03	3.603900E+02
-3.703654E-01	-3.708875E-03	3.608400E+02
-3.703578E-01	-3.708875E-03	3.612700E+02
-3.703654E-01	-3.708721E-03	3.617200E+02
-3.703654E-01	-3.708721E-03	3.621600E+02
-3.703654E-01	-3.708491E-03	3.626000E+02
-3.703578E-01	-3.708491E-03	3.630500E+02
-3.703578E-01	-3.708414E-03	3.634900E+02
-3.703654E-01	-3.708261E-03	3.639400E+02
-3.703654E-01	-3.708338E-03	3.643700E+02
-3.703654E-01	-3.708107E-03	3.648200E+02
-3.703654E-01	-3.708184E-03	3.652600E+02
-3.703578E-01	-3.708107E-03	3.657100E+02
-3.703654E-01	-3.707954E-03	3.661500E+02
-3.703654E-01	-3.707724E-03	3.665900E+02
-3.703654E-01	-3.707570E-03	3.670400E+02
-3.703654E-01	-3.707570E-03	3.674700E+02
-3.703654E-01	-3.707570E-03	3.679200E+02
-3.703654E-01	-3.707647E-03	3.683600E+02
-3.703654E-01	-3.707417E-03	3.688100E+02
-3.703654E-01	-3.707570E-03	3.696900E+02
-3.703578E-01	-3.707647E-03	3.701300E+02
-3.703654E-01	-3.707493E-03	3.705700E+02
-3.703654E-01	-3.707493E-03	3.710200E+02
-3.703654E-01	-3.707417E-03	3.714500E+02
-3.703654E-01	-3.707493E-03	3.719000E+02
-3.703654E-01	-3.707417E-03	3.723400E+02
-3.703654E-01	-3.707340E-03	3.727900E+02
-3.703654E-01	-3.707263E-03	3.732300E+02
-3.703654E-01	-3.707263E-03	3.736800E+02
-3.703654E-01	-3.707033E-03	3.741200E+02
-3.703578E-01	-3.706956E-03	3.745600E+02
-3.703578E-01	-3.706879E-03	3.750100E+02
-3.703654E-01	-3.707033E-03	3.754500E+02
-3.703654E-01	-3.707263E-03	3.759000E+02
-3.703654E-01	-3.707186E-03	3.763400E+02
-3.703654E-01	-3.707186E-03	3.767900E+02
-3.703654E-01	-3.706879E-03	3.772300E+02
-3.703654E-01	-3.706879E-03	3.776700E+02
-3.703654E-01	-3.706649E-03	3.781100E+02
-3.703731E-01	-3.706880E-03	3.785500E+02
-3.703654E-01	-3.706880E-03	3.794300E+02
-3.703731E-01	-3.706880E-03	3.798800E+02
-3.703731E-01	-3.707033E-03	3.803200E+02
-3.703731E-01	-3.707033E-03	3.807700E+02
-3.703731E-01	-3.707033E-03	3.812000E+02
-3.703731E-01	-3.706956E-03	3.816400E+02
-3.703731E-01	-3.706803E-03	3.820900E+02
-3.703731E-01	-3.706649E-03	3.825300E+02
-3.703731E-01	-3.706803E-03	3.829700E+02
-3.703731E-01	-3.706726E-03	3.834100E+02
-3.703808E-01	-3.706803E-03	3.838600E+02
-3.703731E-01	-3.706573E-03	3.843000E+02
-3.703731E-01	-3.706726E-03	3.847500E+02
-3.703731E-01	-3.706726E-03	3.851900E+02
-3.703731E-01	-3.706419E-03	3.856300E+02
-3.703731E-01	-3.706496E-03	3.860800E+02
-3.703731E-01	-3.706496E-03	3.865200E+02
-3.703731E-01	-3.706265E-03	3.869700E+02
-3.703731E-01	-3.706189E-03	3.874000E+02
-3.703731E-01	-3.706035E-03	3.878500E+02
-3.703731E-01	-3.706112E-03	3.882900E+02
-3.703654E-01	-3.706726E-03	3.887400E+02
-3.703578E-01	-3.706573E-03	3.896200E+02
-3.703654E-01	-3.706343E-03	3.900700E+02
-3.703654E-01	-3.706343E-03	3.905000E+02
-3.703654E-01	-3.706343E-03	3.909500E+02
-3.703654E-01	-3.706419E-03	3.913900E+02
-3.703731E-01	-3.706496E-03	3.918400E+02
-3.703731E-01	-3.706419E-03	3.922800E+02
-3.703654E-01	-3.706343E-03	3.927300E+02
-3.703654E-01	-3.706189E-03	3.931700E+02
-3.703654E-01	-3.706112E-03	3.936000E+02
-3.703654E-01	-3.706112E-03	3.940600E+02
-3.703654E-01	-3.705959E-03	3.945000E+02
-3.703654E-01	-3.706035E-03	3.949500E+02
-3.703654E-01	-3.705959E-03	3.953800E+02
-3.703654E-01	-3.705882E-03	3.958300E+02
-3.703654E-01	-3.705882E-03	3.962700E+02
-3.703654E-01	-3.705959E-03	3.967200E+02
-3.703654E-01	-3.705959E-03	3.971500E+02
-3.703654E-01	-3.705728E-03	3.975900E+02
-3.703654E-01	-3.705651E-03	3.980500E+02
-3.703654E-01	-3.705422E-03	3.984800E+02
-3.703654E-01	-3.705191E-03	3.993700E+02
-3.703654E-01	-3.705115E-03	3.998200E+02
-3.703654E-01	-3.704884E-03	4.002500E+02
-3.703654E-01	-3.705038E-03	4.007000E+02
-3.703654E-01	-3.704731E-03	4.011400E+02
-3.703654E-01	-3.704654E-03	4.015800E+02
-3.703654E-01	-3.704577E-03	4.020300E+02
-3.703578E-01	-3.704424E-03	4.024700E+02
-3.703654E-01	-3.704347E-03	4.029100E+02
-3.703578E-01	-3.704424E-03	4.033500E+02
-3.703654E-01	-3.704424E-03	4.038100E+02
-3.703654E-01	-3.704193E-03	4.042500E+02
-3.703654E-01	-3.704193E-03	4.047000E+02
-3.703578E-01	-3.704270E-03	4.051400E+02
-3.703654E-01	-3.704347E-03	4.055700E+02
-3.703654E-01	-3.704117E-03	4.060200E+02
-3.703654E-01	-3.704193E-03	4.064600E+02
-3.703654E-01	-3.704040E-03	4.069100E+02
-3.703654E-01	-3.704040E-03	4.073500E+02
-3.703731E-01	-3.703886E-03	4.078000E+02
-3.703654E-01	-3.704117E-03	4.082400E+02
-3.703654E-01	-3.703426E-03	4.086900E+02
-3.703654E-01	-3.703196E-03	4.095600E+02
-3.703654E-01	-3.703119E-03	4.100100E+02
-3.703654E-01	-3.702812E-03	4.104500E+02
-3.703578E-01	-3.703042E-03	4.109300E+02
-3.703654E-01	-3.703042E-03	4.113700E+02
-3.703654E-01	-3.702888E-03	4.118200E+02
-3.703654E-01	-3.702658E-03	4.122500E+02
-3.703654E-01	-3.702505E-03	4.127000E+02
-3.703654E-01	-3.702505E-03	4.131400E+02
-3.703731E-01	-3.702735E-03	4.135800E+02
-3.703654E-01	-3.702505E-03	4.140300E+02
-3.703654E-01	-3.702428E-03	4.144600E+02
-3.703654E-01	-3.702198E-03	4.149100E+02
-3.703654E-01	-3.702275E-03	4.153500E+02
-3.703654E-01	-3.702121E-03	4.158000E+02
-3.703578E-01	-3.702044E-03	4.162400E+02
-3.703654E-01	-3.701967E-03	4.166900E+02
-3.703654E-01	-3.701891E-03	4.171300E+02
-3.703654E-01	-3.701891E-03	4.175700E+02
-3.703654E-01	-3.701737E-03	4.180200E+02
-3.703654E-01	-3.702428E-03	4.184600E+02
-3.703654E-01	-3.702198E-03	4.193500E+02
-3.703654E-01	-3.702198E-03	4.198000E+02
-3.703654E-01	-3.701968E-03	4.202400E+02
-3.703654E-01	-3.701891E-03	4.206900E+02
-3.703654E-01	-3.701891E-03	4.211300E+02
-3.703578E-01	-3.701814E-03	4.215700E+02
-3.703654E-01	-3.701738E-03	4.220200E+02
-3.703654E-01	-3.701508E-03	4.224600E+02
-3.703654E-01	-3.701814E-03	4.229100E+02
-3.703654E-01	-3.701738E-03	4.233500E+02
-3.703654E-01	-3.701738E-03	4.238000E+02
-3.703578E-01	-3.701814E-03	4.242400E+02
-3.703654E-01	-3.701814E-03	4.246900E+02
-3.703578E-01	-3.701738E-03	4.251300E+02
-3.703578E-01	-3.701584E-03	4.255600E+02
-3.703654E-01	-3.701661E-03	4.260100E+02
-3.703654E-01	-3.701584E-03	4.264500E+02
-3.703654E-01	-3.701354E-03	4.269000E+02
-3.703654E-01	-3.701354E-03	4.273400E+02
-3.703578E-01	-3.701354E-03	4.277900E+02
-3.703578E-01	-3.701431E-03	4.282300E+02
-3.703654E-01	-3.701508E-03	4.286800E+02
-3.703578E-01	-3.701277E-03	4.295500E+02
-3.703578E-01	-3.701200E-03	4.300000E+02
-3.703654E-01	-3.701277E-03	4.304400E+02
-3.703578E-01	-3.701354E-03	4.308900E+02
-3.703578E-01	-3.701200E-03	4.313300E+02
-3.703654E-01	-3.701047E-03	4.317800E+02
-3.703654E-01	-3.701047E-03	4.322100E+02
-3.703654E-01	-3.700664E-03	4.326500E+02
-3.703654E-01	-3.700817E-03	4.331000E+02
-3.703654E-01	-3.700817E-03	4.335400E+02
-3.703578E-01	-3.700664E-03	4.339900E+02
-3.703578E-01	-3.700740E-03	4.344300E+02
-3.703654E-01	-3.700740E-03	4.348800E+02
-3.703654E-01	-3.700664E-03	4.353100E+02
-3.703654E-01	-3.700664E-03	4.357600E+02
-3.703654E-01	-3.700586E-03	4.362000E+02
-3.703654E-01	-3.700510E-03	4.366400E+02
-3.703654E-01	-3.700433E-03	4.370900E+02
-3.703654E-01	-3.700203E-03	4.375300E+02
-3.703654E-01	-3.700279E-03	4.379800E+02
-3.703654E-01	-3.700126E-03	4.384100E+02
-3.703654E-01	-3.699973E-03	4.388700E+02
-3.703654E-01	-3.699742E-03	4.397500E+02
-3.703654E-01	-3.699665E-03	4.401900E+02
-3.703654E-01	-3.699589E-03	4.406300E+02
-3.703654E-01	-3.699359E-03	4.410800E+02
-3.703578E-01	-3.699512E-03	4.415100E+02
-3.703654E-01	-3.699435E-03	4.419600E+02
-3.703654E-01	-3.699359E-03	4.424000E+02
-3.703654E-01	-3.699128E-03	4.428600E+02
-3.703654E-01	-3.699205E-03	4.433000E+02
-3.703578E-01	-3.699205E-03	4.437500E+02
-3.703654E-01	-3.698975E-03	4.441900E+02
-3.703654E-01	-3.698821E-03	4.446300E+02
-3.703654E-01	-3.698668E-03	4.450700E+02
-3.703654E-01	-3.698437E-03	4.455100E+02
