CORRW ASCII
  CorrWare for Windows: Version 3.5f
  Potentiostatic	[-0.37 Ref,50 Hour][default]	bias_-370mV_1.cor
  Date: 11-05-2019    Time: 20:23:20
   
   
  Open Circuit Potential (V): 0.0031
  Begin Information:          Cell Information
    Surface Area:             1
    Density:                  0
    Weight:                   0
    Polarity:                 0
    PolarityI:                0
    Corrosion Unit Type:      0
    Reference Type:           0
    Reference Potential:      0
    User-Defined Potential:   0
    Stern-Geary:              26
  End Information:            Cell Information
  Begin Pstat:                1287
    Pstat Title:              Instrument #1
    Booster Type:             0
    Booster Name:             None
    Current Range:            0
    Current Limit:            0
    Current LimitType:        0
    Sweep Type:               0
    Use Error Beep:           1
    Auxilary Type:            0
    iR Comp. Type:            0
    iR Ohms:                  0
    iR Time:                  27
    iR Ratio:                 255
    LP Filter Type:           2
    Drift Correction:         1
    Null Correction:          0
    Pstat Bandwidth Type:     2
    Gstat Bandwidth Type:     2
    External Input:           0
    SafetyMinV:               0
    SafetyMaxV:               10
    SafetyMinI:               0
    SafetyMaxI:               4
    SafetyMinQ:               0
    SafetyMaxQ:               1000
    SafetyMinT:               0
    SafetyMaxT:               50
    SafetyChT:                0
    SafetyMinVUse:            0
    SafetyMaxVUse:            0
    SafetyMinIUse:            0
    SafetyMaxIUse:            0
    SafetyMinQUse:            0
    SafetyMaxQUse:            0
    SafetyMinTUse:            0
    SafetyMaxTUse:            0
  End Pstat:                  1287
  Begin Experiment:           Potentiostatic	[-0.37 Ref,50 Hour][default]	bias_-370mV_1.cor
    Data File:                Z:\191101_Amezawa\fr_XAS\DPB2\700C_100%O2\Electrochem\bias_-370mV_1.cor
    Data Append:              0
    Comment Lines:            0
    Potential:                -0.37
    Potential Type:           1
    Total Time:               50
    Time Units:               2
    Time Marker:              -1
    Measure Rate Type:        1
    Measure Rate #1:          2000
    Measure Rate #2:          10
    Measure Rate #3:          0.1
    Measure Rate #4:          2
    Use Threshold:            0
    Threshold I_Min:          -15
    Threshold I_Max:          15
    Threshold Delta:          5
    Threshold Time:           60
    Copy AuxV:                0
    Axes Type:                1
    Use Custom Pstat:         0
  End Experiment:             Potentiostatic	[-0.37 Ref,50 Hour][default]	bias_-370mV_1.cor
  Data Points:                1941
  E(Volts)	I(A/cm2)	T(Seconds)
End Comments
-3.541519E-01	-3.240570E-03	0.000000E+00
-3.703577E-01	-3.642950E-03	8.800000E-01
-3.703501E-01	-3.696672E-03	1.330000E+00
-3.703577E-01	-3.731669E-03	1.770000E+00
-3.703501E-01	-3.755537E-03	2.220000E+00
-3.703501E-01	-3.771347E-03	2.660000E+00
-3.703577E-01	-3.782475E-03	3.110000E+00
-3.703501E-01	-3.789996E-03	3.540000E+00
-3.703577E-01	-3.795598E-03	3.990000E+00
-3.703577E-01	-3.799589E-03	4.430000E+00
-3.703654E-01	-3.802736E-03	4.870000E+00
-3.703731E-01	-3.805268E-03	5.320000E+00
-3.703654E-01	-3.807263E-03	5.760000E+00
-3.703654E-01	-3.808875E-03	6.210000E+00
-3.703577E-01	-3.810257E-03	6.640000E+00
-3.703577E-01	-3.811638E-03	7.090000E+00
-3.703654E-01	-3.812943E-03	7.530000E+00
-3.703654E-01	-3.814248E-03	7.980000E+00
-3.703654E-01	-3.815322E-03	8.420000E+00
-3.703884E-01	-3.815782E-03	8.860000E+00
-3.703884E-01	-3.818085E-03	9.740000E+00
-3.703731E-01	-3.819236E-03	1.019000E+01
-3.703808E-01	-3.820464E-03	1.062000E+01
-3.703808E-01	-3.821692E-03	1.108000E+01
-3.703808E-01	-3.822689E-03	1.152000E+01
-3.703808E-01	-3.823687E-03	1.197000E+01
-3.703731E-01	-3.824608E-03	1.241000E+01
-3.703731E-01	-3.825529E-03	1.284000E+01
-3.703808E-01	-3.826603E-03	1.329000E+01
-3.703808E-01	-3.827448E-03	1.373000E+01
-3.703884E-01	-3.828445E-03	1.418000E+01
-3.703884E-01	-3.829136E-03	1.462000E+01
-3.703961E-01	-3.830134E-03	1.507000E+01
-3.703961E-01	-3.831055E-03	1.551000E+01
-3.703884E-01	-3.831976E-03	1.596000E+01
-3.703884E-01	-3.832897E-03	1.640000E+01
-3.703884E-01	-3.833741E-03	1.683000E+01
-3.703808E-01	-3.834585E-03	1.728000E+01
-3.703808E-01	-3.835276E-03	1.772000E+01
-3.703808E-01	-3.836120E-03	1.817000E+01
-3.703808E-01	-3.837118E-03	1.861000E+01
-3.703808E-01	-3.837808E-03	1.906000E+01
-3.703808E-01	-3.839420E-03	1.994000E+01
-3.703884E-01	-3.840111E-03	2.038000E+01
-3.703808E-01	-3.840801E-03	2.082000E+01
-3.703808E-01	-3.841415E-03	2.127000E+01
-3.703884E-01	-3.842106E-03	2.171000E+01
-3.703808E-01	-3.842797E-03	2.216000E+01
-3.703808E-01	-3.843488E-03	2.260000E+01
-3.703808E-01	-3.844178E-03	2.304000E+01
-3.703884E-01	-3.844869E-03	2.348000E+01
-3.703884E-01	-3.845483E-03	2.393000E+01
-3.703884E-01	-3.846174E-03	2.437000E+01
-3.703884E-01	-3.846864E-03	2.481000E+01
-3.703961E-01	-3.847786E-03	2.526000E+01
-3.703884E-01	-3.848246E-03	2.570000E+01
-3.703884E-01	-3.848860E-03	2.615000E+01
-3.703884E-01	-3.849551E-03	2.659000E+01
-3.703884E-01	-3.850318E-03	2.704000E+01
-3.703884E-01	-3.850932E-03	2.747000E+01
-3.703884E-01	-3.851776E-03	2.792000E+01
-3.703961E-01	-3.852543E-03	2.836000E+01
-3.703884E-01	-3.853004E-03	2.880000E+01
-3.703884E-01	-3.854002E-03	2.969000E+01
-3.703884E-01	-3.854616E-03	3.013000E+01
-3.703884E-01	-3.855383E-03	3.057000E+01
-3.703961E-01	-3.856381E-03	3.102000E+01
-3.703884E-01	-3.856995E-03	3.146000E+01
-3.703884E-01	-3.857455E-03	3.191000E+01
-3.703961E-01	-3.858146E-03	3.235000E+01
-3.703808E-01	-3.858607E-03	3.279000E+01
-3.703808E-01	-3.858914E-03	3.323000E+01
-3.703808E-01	-3.859528E-03	3.367000E+01
-3.703884E-01	-3.860295E-03	3.412000E+01
-3.703808E-01	-3.860909E-03	3.457000E+01
-3.703884E-01	-3.861523E-03	3.502000E+01
-3.703808E-01	-3.861830E-03	3.546000E+01
-3.703808E-01	-3.862214E-03	3.591000E+01
-3.703961E-01	-3.862905E-03	3.634000E+01
-3.703961E-01	-3.863442E-03	3.678000E+01
-3.703961E-01	-3.863979E-03	3.723000E+01
-3.703884E-01	-3.864746E-03	3.767000E+01
-3.703961E-01	-3.865283E-03	3.812000E+01
-3.703961E-01	-3.865667E-03	3.856000E+01
-3.703961E-01	-3.866282E-03	3.901000E+01
-3.703808E-01	-3.867432E-03	3.989000E+01
-3.703731E-01	-3.868046E-03	4.033000E+01
-3.703808E-01	-3.868353E-03	4.077000E+01
-3.703731E-01	-3.868814E-03	4.122000E+01
-3.703731E-01	-3.869197E-03	4.166000E+01
-3.703808E-01	-3.869504E-03	4.211000E+01
-3.703808E-01	-3.870042E-03	4.255000E+01
-3.703884E-01	-3.870426E-03	4.299000E+01
-3.703808E-01	-3.870886E-03	4.343000E+01
-3.703884E-01	-3.871500E-03	4.387000E+01
-3.703961E-01	-3.871883E-03	4.432000E+01
-3.703961E-01	-3.872191E-03	4.476000E+01
-3.703884E-01	-3.872651E-03	4.522000E+01
-3.703808E-01	-3.873035E-03	4.565000E+01
-3.703731E-01	-3.873265E-03	4.610000E+01
-3.703731E-01	-3.873572E-03	4.654000E+01
-3.703731E-01	-3.874109E-03	4.698000E+01
-3.703808E-01	-3.874646E-03	4.742000E+01
-3.703884E-01	-3.874954E-03	4.786000E+01
-3.703884E-01	-3.875414E-03	4.831000E+01
-3.703961E-01	-3.876412E-03	4.875000E+01
-3.703654E-01	-3.877410E-03	4.964000E+01
-3.703654E-01	-3.877793E-03	5.009000E+01
-3.703731E-01	-3.878407E-03	5.052000E+01
-3.703808E-01	-3.878868E-03	5.097000E+01
-3.703884E-01	-3.879175E-03	5.141000E+01
-3.703884E-01	-3.879482E-03	5.185000E+01
-3.703884E-01	-3.879942E-03	5.230000E+01
-3.703808E-01	-3.880173E-03	5.273000E+01
-3.703654E-01	-3.880710E-03	5.318000E+01
-3.703731E-01	-3.881247E-03	5.362000E+01
-3.703731E-01	-3.881631E-03	5.408000E+01
-3.703884E-01	-3.882091E-03	5.452000E+01
-3.703884E-01	-3.882475E-03	5.497000E+01
-3.703884E-01	-3.882705E-03	5.541000E+01
-3.703808E-01	-3.883549E-03	5.584000E+01
-3.703654E-01	-3.883856E-03	5.629000E+01
-3.703731E-01	-3.884317E-03	5.673000E+01
-3.703884E-01	-3.884624E-03	5.718000E+01
-3.703884E-01	-3.885314E-03	5.762000E+01
-3.703884E-01	-3.885621E-03	5.807000E+01
-3.703884E-01	-3.885775E-03	5.850000E+01
-3.703731E-01	-3.884393E-03	5.896000E+01
-3.704038E-01	-3.885007E-03	5.985000E+01
-3.704038E-01	-3.885621E-03	6.030000E+01
-3.704115E-01	-3.885851E-03	6.074000E+01
-3.703961E-01	-3.886082E-03	6.119000E+01
-3.703884E-01	-3.886312E-03	6.163000E+01
-3.703961E-01	-3.886696E-03	6.208000E+01
-3.704115E-01	-3.887156E-03	6.252000E+01
-3.704038E-01	-3.887310E-03	6.297000E+01
-3.703961E-01	-3.887770E-03	6.340000E+01
-3.703884E-01	-3.888077E-03	6.384000E+01
-3.703884E-01	-3.888384E-03	6.429000E+01
-3.704038E-01	-3.888614E-03	6.473000E+01
-3.704038E-01	-3.889152E-03	6.518000E+01
-3.704115E-01	-3.889612E-03	6.562000E+01
-3.703961E-01	-3.889689E-03	6.607000E+01
-3.703961E-01	-3.890072E-03	6.651000E+01
-3.704038E-01	-3.890456E-03	6.695000E+01
-3.704038E-01	-3.890763E-03	6.739000E+01
-3.704038E-01	-3.891301E-03	6.783000E+01
-3.703961E-01	-3.891684E-03	6.828000E+01
-3.703961E-01	-3.892298E-03	6.872000E+01
-3.703961E-01	-3.892912E-03	6.960000E+01
-3.704038E-01	-3.893603E-03	7.005000E+01
-3.703961E-01	-3.893910E-03	7.048000E+01
-3.703961E-01	-3.894140E-03	7.093000E+01
-3.704038E-01	-3.894294E-03	7.137000E+01
-3.704038E-01	-3.894831E-03	7.181000E+01
-3.704038E-01	-3.895368E-03	7.226000E+01
-3.703961E-01	-3.895752E-03	7.270000E+01
-3.703961E-01	-3.895905E-03	7.315000E+01
-3.704038E-01	-3.896212E-03	7.358000E+01
-3.703961E-01	-3.896366E-03	7.403000E+01
-3.704038E-01	-3.896826E-03	7.448000E+01
-3.704038E-01	-3.896980E-03	7.493000E+01
-3.703961E-01	-3.897287E-03	7.537000E+01
-3.704038E-01	-3.897671E-03	7.580000E+01
-3.704038E-01	-3.897900E-03	7.625000E+01
-3.704038E-01	-3.898284E-03	7.669000E+01
-3.704038E-01	-3.898592E-03	7.714000E+01
-3.703884E-01	-3.899052E-03	7.758000E+01
-3.704038E-01	-3.899205E-03	7.803000E+01
-3.704038E-01	-3.899359E-03	7.847000E+01
-3.703961E-01	-3.899666E-03	7.892000E+01
-3.703884E-01	-3.900510E-03	7.979000E+01
-3.703884E-01	-3.900587E-03	8.024000E+01
-3.704038E-01	-3.900970E-03	8.068000E+01
-3.703884E-01	-3.901354E-03	8.113000E+01
-3.703961E-01	-3.901431E-03	8.157000E+01
-3.703961E-01	-3.901815E-03	8.202000E+01
-3.703961E-01	-3.901968E-03	8.246000E+01
-3.704038E-01	-3.902352E-03	8.290000E+01
-3.704038E-01	-3.902429E-03	8.334000E+01
-3.703961E-01	-3.902736E-03	8.378000E+01
-3.703961E-01	-3.903043E-03	8.423000E+01
-3.703961E-01	-3.903273E-03	8.467000E+01
-3.704038E-01	-3.903350E-03	8.512000E+01
-3.704115E-01	-3.903426E-03	8.556000E+01
-3.704038E-01	-3.903580E-03	8.601000E+01
-3.703961E-01	-3.903733E-03	8.645000E+01
-3.704038E-01	-3.904117E-03	8.690000E+01
-3.703961E-01	-3.904117E-03	8.733000E+01
-3.703961E-01	-3.904347E-03	8.777000E+01
-3.703961E-01	-3.904731E-03	8.823000E+01
-3.704038E-01	-3.904731E-03	8.867000E+01
-3.704038E-01	-3.906036E-03	8.912000E+01
-3.703961E-01	-3.906266E-03	9.000000E+01
-3.703961E-01	-3.906497E-03	9.044000E+01
-3.703961E-01	-3.906727E-03	9.089000E+01
-3.703961E-01	-3.906880E-03	9.133000E+01
-3.704038E-01	-3.907034E-03	9.177000E+01
-3.704038E-01	-3.907417E-03	9.222000E+01
-3.703961E-01	-3.907724E-03	9.265000E+01
-3.703961E-01	-3.907724E-03	9.310000E+01
-3.703961E-01	-3.908108E-03	9.355000E+01
-3.704038E-01	-3.908569E-03	9.400000E+01
-3.704038E-01	-3.908569E-03	9.443000E+01
-3.703961E-01	-3.908722E-03	9.487000E+01
-3.703961E-01	-3.908952E-03	9.532000E+01
-3.704038E-01	-3.909183E-03	9.576000E+01
-3.704038E-01	-3.909413E-03	9.620000E+01
-3.704038E-01	-3.909874E-03	9.664000E+01
-3.704038E-01	-3.909950E-03	9.709000E+01
-3.703961E-01	-3.910180E-03	9.753000E+01
-3.704038E-01	-3.910180E-03	9.798000E+01
-3.704038E-01	-3.910333E-03	9.842000E+01
-3.703961E-01	-3.910488E-03	9.886000E+01
-3.704038E-01	-3.910564E-03	9.975000E+01
-3.704038E-01	-3.910794E-03	1.002000E+02
-3.703961E-01	-3.910948E-03	1.006300E+02
-3.703961E-01	-3.911178E-03	1.010800E+02
-3.703961E-01	-3.911255E-03	1.015200E+02
-3.703961E-01	-3.911332E-03	1.019700E+02
-3.703961E-01	-3.911792E-03	1.024100E+02
-3.703961E-01	-3.911792E-03	1.028500E+02
-3.703961E-01	-3.911946E-03	1.033000E+02
-3.703961E-01	-3.911946E-03	1.037400E+02
-3.704115E-01	-3.912329E-03	1.041900E+02
-3.704038E-01	-3.912560E-03	1.046300E+02
-3.704038E-01	-3.912713E-03	1.050800E+02
-3.703884E-01	-3.912866E-03	1.055100E+02
-3.703961E-01	-3.913250E-03	1.059600E+02
-3.703961E-01	-3.913557E-03	1.064000E+02
-3.703884E-01	-3.913710E-03	1.068400E+02
-3.703884E-01	-3.913787E-03	1.072900E+02
-3.703961E-01	-3.913941E-03	1.077300E+02
-3.703961E-01	-3.914401E-03	1.081800E+02
-3.703961E-01	-3.914401E-03	1.086200E+02
-3.703961E-01	-3.913710E-03	1.090700E+02
-3.704038E-01	-3.914018E-03	1.099500E+02
-3.704038E-01	-3.914171E-03	1.103900E+02
-3.704038E-01	-3.914171E-03	1.108300E+02
-3.704038E-01	-3.914401E-03	1.112800E+02
-3.704038E-01	-3.914478E-03	1.117100E+02
-3.703884E-01	-3.914631E-03	1.121600E+02
-3.703961E-01	-3.914785E-03	1.126000E+02
-3.703884E-01	-3.915092E-03	1.130500E+02
-3.703961E-01	-3.915245E-03	1.134800E+02
-3.703961E-01	-3.915399E-03	1.139300E+02
-3.703961E-01	-3.915476E-03	1.143700E+02
-3.703961E-01	-3.915629E-03	1.148100E+02
-3.703884E-01	-3.915706E-03	1.152600E+02
-3.703884E-01	-3.915783E-03	1.156900E+02
-3.703961E-01	-3.916013E-03	1.161400E+02
-3.703884E-01	-3.916396E-03	1.165800E+02
-3.703961E-01	-3.916473E-03	1.170300E+02
-3.703961E-01	-3.916550E-03	1.174800E+02
-3.704038E-01	-3.916704E-03	1.179300E+02
-3.704038E-01	-3.916780E-03	1.183700E+02
-3.704115E-01	-3.917087E-03	1.188100E+02
-3.704115E-01	-3.917624E-03	1.196900E+02
-3.704115E-01	-3.917624E-03	1.201400E+02
-3.704115E-01	-3.917471E-03	1.205800E+02
-3.704038E-01	-3.917471E-03	1.210300E+02
-3.704038E-01	-3.917701E-03	1.214700E+02
-3.704038E-01	-3.917931E-03	1.219200E+02
-3.704038E-01	-3.917855E-03	1.223600E+02
-3.704038E-01	-3.917855E-03	1.227900E+02
-3.704038E-01	-3.917931E-03	1.232500E+02
-3.703961E-01	-3.918162E-03	1.236800E+02
-3.704038E-01	-3.918238E-03	1.241300E+02
-3.703961E-01	-3.918468E-03	1.245700E+02
-3.703961E-01	-3.918545E-03	1.250200E+02
-3.704038E-01	-3.918853E-03	1.254600E+02
-3.704038E-01	-3.919006E-03	1.259100E+02
-3.704038E-01	-3.919160E-03	1.263400E+02
-3.704038E-01	-3.919313E-03	1.267800E+02
-3.704038E-01	-3.919696E-03	1.272400E+02
-3.704038E-01	-3.919773E-03	1.276800E+02
-3.704038E-01	-3.919773E-03	1.281300E+02
-3.704038E-01	-3.919926E-03	1.285700E+02
-3.704115E-01	-3.920157E-03	1.290100E+02
-3.704115E-01	-3.920387E-03	1.299000E+02
-3.704038E-01	-3.920618E-03	1.303400E+02
-3.704115E-01	-3.920771E-03	1.307800E+02
-3.704115E-01	-3.921001E-03	1.312300E+02
-3.704115E-01	-3.921155E-03	1.316600E+02
-3.704115E-01	-3.921462E-03	1.321100E+02
-3.704115E-01	-3.921615E-03	1.325500E+02
-3.704115E-01	-3.921462E-03	1.330000E+02
-3.704115E-01	-3.921615E-03	1.334400E+02
-3.704115E-01	-3.921769E-03	1.338800E+02
-3.704115E-01	-3.922075E-03	1.343300E+02
-3.704191E-01	-3.922306E-03	1.347600E+02
-3.704115E-01	-3.922382E-03	1.352100E+02
-3.704115E-01	-3.922459E-03	1.356500E+02
-3.704115E-01	-3.922613E-03	1.361000E+02
-3.704038E-01	-3.922767E-03	1.365400E+02
-3.704115E-01	-3.922920E-03	1.369900E+02
-3.704115E-01	-3.923073E-03	1.374300E+02
-3.704115E-01	-3.923227E-03	1.378700E+02
-3.704115E-01	-3.923303E-03	1.383100E+02
-3.704115E-01	-3.924225E-03	1.387500E+02
-3.704115E-01	-3.924301E-03	1.396400E+02
-3.704115E-01	-3.924609E-03	1.401100E+02
-3.704115E-01	-3.924686E-03	1.405500E+02
-3.704115E-01	-3.924686E-03	1.410000E+02
-3.704115E-01	-3.924839E-03	1.414300E+02
-3.704115E-01	-3.924762E-03	1.418700E+02
-3.704115E-01	-3.924992E-03	1.423200E+02
-3.704115E-01	-3.924992E-03	1.427600E+02
-3.704115E-01	-3.925222E-03	1.432100E+02
-3.704115E-01	-3.925222E-03	1.436500E+02
-3.704115E-01	-3.925376E-03	1.441000E+02
-3.704115E-01	-3.925530E-03	1.445300E+02
-3.704115E-01	-3.925376E-03	1.449800E+02
-3.704115E-01	-3.925453E-03	1.454200E+02
-3.704115E-01	-3.925530E-03	1.458600E+02
-3.704115E-01	-3.925530E-03	1.463100E+02
-3.704115E-01	-3.925530E-03	1.467500E+02
-3.704115E-01	-3.925606E-03	1.472000E+02
-3.704038E-01	-3.925760E-03	1.476400E+02
-3.704115E-01	-3.925836E-03	1.480900E+02
-3.704038E-01	-3.926067E-03	1.485300E+02
-3.704115E-01	-3.925222E-03	1.489800E+02
-3.704038E-01	-3.925299E-03	1.498500E+02
-3.703961E-01	-3.925299E-03	1.503000E+02
-3.704038E-01	-3.925299E-03	1.507400E+02
-3.704038E-01	-3.925376E-03	1.511900E+02
-3.704038E-01	-3.925376E-03	1.516300E+02
-3.704038E-01	-3.925452E-03	1.520800E+02
-3.704038E-01	-3.925606E-03	1.525100E+02
-3.704038E-01	-3.925759E-03	1.529600E+02
-3.703961E-01	-3.925606E-03	1.534000E+02
-3.704038E-01	-3.925606E-03	1.538400E+02
-3.704038E-01	-3.925683E-03	1.542900E+02
-3.704038E-01	-3.925836E-03	1.547300E+02
-3.704038E-01	-3.925913E-03	1.551800E+02
-3.703961E-01	-3.926067E-03	1.556100E+02
-3.704038E-01	-3.926297E-03	1.560600E+02
-3.704038E-01	-3.926374E-03	1.565000E+02
-3.704038E-01	-3.926297E-03	1.569500E+02
-3.704038E-01	-3.926374E-03	1.573900E+02
-3.704038E-01	-3.926450E-03	1.578300E+02
-3.704038E-01	-3.926527E-03	1.582800E+02
-3.703961E-01	-3.927218E-03	1.587100E+02
-3.703884E-01	-3.927525E-03	1.596000E+02
-3.703961E-01	-3.927832E-03	1.600500E+02
-3.703961E-01	-3.927755E-03	1.604900E+02
-3.703961E-01	-3.927909E-03	1.609400E+02
-3.703961E-01	-3.928062E-03	1.613800E+02
-3.703884E-01	-3.928062E-03	1.618100E+02
-3.703961E-01	-3.928062E-03	1.622600E+02
-3.704038E-01	-3.927986E-03	1.627000E+02
-3.704038E-01	-3.928139E-03	1.631500E+02
-3.704038E-01	-3.928293E-03	1.635900E+02
-3.704038E-01	-3.928523E-03	1.640400E+02
-3.704115E-01	-3.928599E-03	1.644800E+02
-3.704115E-01	-3.928753E-03	1.649300E+02
-3.704038E-01	-3.928753E-03	1.653600E+02
-3.704038E-01	-3.928676E-03	1.658000E+02
-3.704038E-01	-3.928676E-03	1.662500E+02
-3.704038E-01	-3.928599E-03	1.666900E+02
-3.704038E-01	-3.928983E-03	1.671400E+02
-3.703961E-01	-3.928906E-03	1.675800E+02
-3.703884E-01	-3.928906E-03	1.680300E+02
-3.703961E-01	-3.928983E-03	1.684700E+02
-3.703884E-01	-3.928216E-03	1.689100E+02
-3.703884E-01	-3.928293E-03	1.697800E+02
-3.703961E-01	-3.928523E-03	1.702400E+02
-3.703961E-01	-3.928523E-03	1.706800E+02
-3.703884E-01	-3.928523E-03	1.711300E+02
-3.703884E-01	-3.928676E-03	1.715600E+02
-3.703961E-01	-3.928906E-03	1.720100E+02
-3.703961E-01	-3.928983E-03	1.724500E+02
-3.703884E-01	-3.928906E-03	1.729000E+02
-3.703884E-01	-3.929136E-03	1.733400E+02
-3.703884E-01	-3.929290E-03	1.737700E+02
-3.703961E-01	-3.929443E-03	1.742200E+02
-3.703884E-01	-3.929367E-03	1.746600E+02
-3.703961E-01	-3.929367E-03	1.751100E+02
-3.703961E-01	-3.929443E-03	1.755400E+02
-3.703961E-01	-3.929443E-03	1.760000E+02
-3.703884E-01	-3.929520E-03	1.764400E+02
-3.703884E-01	-3.929443E-03	1.768800E+02
-3.703884E-01	-3.929443E-03	1.773300E+02
-3.703884E-01	-3.929520E-03	1.777600E+02
-3.703961E-01	-3.929674E-03	1.782100E+02
-3.703961E-01	-3.929827E-03	1.786500E+02
-3.703961E-01	-3.930364E-03	1.791000E+02
-3.703961E-01	-3.930441E-03	1.799800E+02
-3.703961E-01	-3.930595E-03	1.804200E+02
-3.703961E-01	-3.930518E-03	1.808600E+02
-3.703884E-01	-3.930595E-03	1.813000E+02
-3.703961E-01	-3.930441E-03	1.817400E+02
-3.703961E-01	-3.930518E-03	1.821900E+02
-3.703884E-01	-3.930518E-03	1.826300E+02
-3.703884E-01	-3.930672E-03	1.830800E+02
-3.703961E-01	-3.930595E-03	1.835200E+02
-3.703961E-01	-3.930518E-03	1.839700E+02
-3.703961E-01	-3.930595E-03	1.844000E+02
-3.703884E-01	-3.930595E-03	1.848500E+02
-3.703961E-01	-3.930518E-03	1.853000E+02
-3.703961E-01	-3.930672E-03	1.857400E+02
-3.703961E-01	-3.930672E-03	1.861900E+02
-3.703961E-01	-3.930441E-03	1.866300E+02
-3.703961E-01	-3.930441E-03	1.870800E+02
-3.703961E-01	-3.930518E-03	1.875100E+02
-3.703961E-01	-3.930518E-03	1.879600E+02
-3.703884E-01	-3.930595E-03	1.884000E+02
-3.704038E-01	-3.930672E-03	1.888400E+02
-3.704038E-01	-3.930748E-03	1.897300E+02
-3.704038E-01	-3.930672E-03	1.901800E+02
-3.704038E-01	-3.930825E-03	1.906200E+02
-3.704038E-01	-3.930978E-03	1.910600E+02
-3.703961E-01	-3.930978E-03	1.915000E+02
-3.703961E-01	-3.931132E-03	1.919500E+02
-3.704038E-01	-3.931285E-03	1.923900E+02
-3.704038E-01	-3.931209E-03	1.928200E+02
-3.704115E-01	-3.931209E-03	1.932700E+02
-3.704038E-01	-3.931285E-03	1.937100E+02
-3.703961E-01	-3.931439E-03	1.941600E+02
-3.704038E-01	-3.931669E-03	1.945900E+02
-3.704038E-01	-3.931593E-03	1.950400E+02
-3.704038E-01	-3.931516E-03	1.954900E+02
-3.704038E-01	-3.931669E-03	1.959400E+02
-3.704038E-01	-3.931669E-03	1.963700E+02
-3.704038E-01	-3.931746E-03	1.968100E+02
-3.704038E-01	-3.931746E-03	1.972600E+02
-3.704038E-01	-3.931669E-03	1.976900E+02
-3.704038E-01	-3.931823E-03	1.981400E+02
-3.704115E-01	-3.931900E-03	1.985800E+02
-3.704115E-01	-3.931746E-03	1.990300E+02
-3.704115E-01	-3.931746E-03	1.999200E+02
-3.704115E-01	-3.931823E-03	2.003600E+02
-3.704115E-01	-3.931823E-03	2.007900E+02
-3.704038E-01	-3.931746E-03	2.012400E+02
-3.704115E-01	-3.931823E-03	2.016800E+02
-3.704115E-01	-3.931900E-03	2.021300E+02
-3.704115E-01	-3.931900E-03	2.025700E+02
-3.704038E-01	-3.931823E-03	2.030200E+02
-3.704038E-01	-3.931823E-03	2.034600E+02
-3.704038E-01	-3.931746E-03	2.039100E+02
-3.704038E-01	-3.931823E-03	2.043500E+02
-3.704038E-01	-3.931746E-03	2.047900E+02
-3.703961E-01	-3.931976E-03	2.052400E+02
-3.703961E-01	-3.931823E-03	2.056800E+02
-3.704038E-01	-3.931900E-03	2.061300E+02
-3.704038E-01	-3.931976E-03	2.065600E+02
-3.704038E-01	-3.931976E-03	2.070100E+02
-3.704038E-01	-3.931823E-03	2.074500E+02
-3.704038E-01	-3.931823E-03	2.079000E+02
-3.703961E-01	-3.931823E-03	2.083400E+02
-3.704038E-01	-3.931746E-03	2.087700E+02
-3.703961E-01	-3.931669E-03	2.096600E+02
-3.704038E-01	-3.931746E-03	2.101100E+02
-3.704038E-01	-3.931976E-03	2.105400E+02
-3.704115E-01	-3.931900E-03	2.109900E+02
-3.704115E-01	-3.931823E-03	2.114300E+02
-3.704038E-01	-3.931976E-03	2.118700E+02
-3.704115E-01	-3.931900E-03	2.123200E+02
-3.704038E-01	-3.931746E-03	2.127500E+02
-3.704038E-01	-3.931823E-03	2.132100E+02
-3.704038E-01	-3.931976E-03	2.136500E+02
-3.704038E-01	-3.931746E-03	2.141000E+02
-3.704038E-01	-3.931593E-03	2.145400E+02
-3.704038E-01	-3.931593E-03	2.149900E+02
-3.704038E-01	-3.931669E-03	2.154300E+02
-3.704038E-01	-3.931593E-03	2.158600E+02
-3.704038E-01	-3.931516E-03	2.163100E+02
-3.704038E-01	-3.931516E-03	2.167500E+02
-3.704038E-01	-3.931362E-03	2.172000E+02
-3.704038E-01	-3.931362E-03	2.176400E+02
-3.704115E-01	-3.931286E-03	2.180900E+02
-3.704038E-01	-3.931362E-03	2.185300E+02
-3.703961E-01	-3.930594E-03	2.189700E+02
-3.703961E-01	-3.930671E-03	2.198700E+02
-3.703961E-01	-3.930671E-03	2.203200E+02
-3.703961E-01	-3.930671E-03	2.207500E+02
-3.703961E-01	-3.930825E-03	2.212000E+02
-3.703961E-01	-3.930671E-03	2.216400E+02
-3.703961E-01	-3.930671E-03	2.220900E+02
-3.703961E-01	-3.930748E-03	2.225300E+02
-3.703884E-01	-3.930748E-03	2.229800E+02
-3.703961E-01	-3.930902E-03	2.234200E+02
-3.703884E-01	-3.930825E-03	2.238600E+02
-3.703961E-01	-3.930902E-03	2.243100E+02
-3.703961E-01	-3.930748E-03	2.247500E+02
-3.704038E-01	-3.930902E-03	2.252000E+02
-3.704115E-01	-3.930902E-03	2.256400E+02
-3.704038E-01	-3.930825E-03	2.260900E+02
-3.704038E-01	-3.930671E-03	2.265200E+02
-3.704038E-01	-3.930748E-03	2.269700E+02
-3.704038E-01	-3.930978E-03	2.274100E+02
-3.704038E-01	-3.930902E-03	2.278500E+02
-3.704038E-01	-3.930825E-03	2.283000E+02
-3.704038E-01	-3.930978E-03	2.287400E+02
-3.703884E-01	-3.931055E-03	2.296200E+02
-3.703961E-01	-3.931132E-03	2.300700E+02
-3.703961E-01	-3.931055E-03	2.305000E+02
-3.703961E-01	-3.930978E-03	2.309500E+02
-3.703961E-01	-3.930978E-03	2.313900E+02
-3.703961E-01	-3.930825E-03	2.318300E+02
-3.703961E-01	-3.930902E-03	2.322800E+02
-3.704038E-01	-3.930902E-03	2.327200E+02
-3.704038E-01	-3.930748E-03	2.331700E+02
-3.704038E-01	-3.930748E-03	2.336100E+02
-3.704115E-01	-3.930825E-03	2.340600E+02
-3.704038E-01	-3.930594E-03	2.345000E+02
-3.704038E-01	-3.930594E-03	2.349500E+02
-3.703961E-01	-3.930671E-03	2.353900E+02
-3.703961E-01	-3.930671E-03	2.358200E+02
-3.703961E-01	-3.930671E-03	2.362700E+02
-3.703961E-01	-3.930594E-03	2.367100E+02
-3.703961E-01	-3.930671E-03	2.371600E+02
-3.704115E-01	-3.930671E-03	2.376000E+02
-3.704038E-01	-3.930671E-03	2.380500E+02
-3.704038E-01	-3.930364E-03	2.384900E+02
-3.704038E-01	-3.930518E-03	2.389400E+02
-3.704038E-01	-3.930594E-03	2.398100E+02
-3.703961E-01	-3.930518E-03	2.402600E+02
-3.703961E-01	-3.930518E-03	2.407000E+02
-3.703884E-01	-3.930364E-03	2.411500E+02
-3.703961E-01	-3.930441E-03	2.415900E+02
-3.704038E-01	-3.930441E-03	2.420400E+02
-3.704115E-01	-3.930671E-03	2.424700E+02
-3.704038E-01	-3.930594E-03	2.429200E+02
-3.704038E-01	-3.930671E-03	2.433600E+02
-3.704115E-01	-3.930594E-03	2.438000E+02
-3.704038E-01	-3.930441E-03	2.442500E+02
-3.704038E-01	-3.930518E-03	2.446900E+02
-3.703961E-01	-3.930518E-03	2.451400E+02
-3.703961E-01	-3.930748E-03	2.455700E+02
-3.703961E-01	-3.930594E-03	2.460200E+02
-3.704038E-01	-3.930594E-03	2.464600E+02
-3.703961E-01	-3.930364E-03	2.469100E+02
-3.703961E-01	-3.930441E-03	2.473500E+02
-3.704115E-01	-3.930364E-03	2.477900E+02
-3.704038E-01	-3.930134E-03	2.482400E+02
-3.704038E-01	-3.930902E-03	2.486800E+02
-3.704038E-01	-3.930825E-03	2.495700E+02
-3.704038E-01	-3.930672E-03	2.500200E+02
-3.704038E-01	-3.930595E-03	2.504500E+02
-3.704038E-01	-3.930518E-03	2.509100E+02
-3.704038E-01	-3.930441E-03	2.513500E+02
-3.703961E-01	-3.930364E-03	2.517900E+02
-3.704038E-01	-3.930441E-03	2.522400E+02
-3.704115E-01	-3.930441E-03	2.526700E+02
-3.704038E-01	-3.930364E-03	2.531200E+02
-3.704038E-01	-3.930364E-03	2.535600E+02
-3.704038E-01	-3.930364E-03	2.540100E+02
-3.704038E-01	-3.930364E-03	2.544500E+02
-3.703961E-01	-3.930288E-03	2.549000E+02
-3.703961E-01	-3.930364E-03	2.553300E+02
-3.703961E-01	-3.930364E-03	2.557700E+02
-3.703961E-01	-3.930288E-03	2.562200E+02
-3.704038E-01	-3.930288E-03	2.566600E+02
-3.704038E-01	-3.930364E-03	2.571100E+02
-3.704115E-01	-3.930518E-03	2.575500E+02
-3.704038E-01	-3.930595E-03	2.580000E+02
-3.704038E-01	-3.930364E-03	2.584300E+02
-3.704038E-01	-3.929443E-03	2.588700E+02
-3.703961E-01	-3.929367E-03	2.597500E+02
-3.703961E-01	-3.929520E-03	2.602000E+02
-3.704038E-01	-3.929443E-03	2.606400E+02
-3.704038E-01	-3.929597E-03	2.611000E+02
-3.704038E-01	-3.929597E-03	2.615300E+02
-3.704038E-01	-3.929751E-03	2.619800E+02
-3.704038E-01	-3.929751E-03	2.624200E+02
-3.704038E-01	-3.929674E-03	2.628600E+02
-3.704038E-01	-3.929674E-03	2.633100E+02
-3.704115E-01	-3.929751E-03	2.637500E+02
-3.704115E-01	-3.929597E-03	2.642000E+02
-3.704115E-01	-3.929674E-03	2.646300E+02
-3.704115E-01	-3.929597E-03	2.650800E+02
-3.704115E-01	-3.929597E-03	2.655200E+02
-3.704038E-01	-3.929674E-03	2.659700E+02
-3.704115E-01	-3.929367E-03	2.664000E+02
-3.703961E-01	-3.929213E-03	2.668400E+02
-3.703961E-01	-3.929290E-03	2.672900E+02
-3.703961E-01	-3.929290E-03	2.677300E+02
-3.703961E-01	-3.929367E-03	2.681800E+02
-3.703961E-01	-3.929367E-03	2.686100E+02
-3.703961E-01	-3.929827E-03	2.690600E+02
-3.703961E-01	-3.929597E-03	2.699500E+02
-3.703961E-01	-3.929597E-03	2.703900E+02
-3.703961E-01	-3.929597E-03	2.708300E+02
-3.703884E-01	-3.929597E-03	2.712700E+02
-3.703961E-01	-3.929520E-03	2.717100E+02
-3.703961E-01	-3.929367E-03	2.721600E+02
-3.703961E-01	-3.929520E-03	2.726000E+02
-3.703961E-01	-3.929520E-03	2.730500E+02
-3.703961E-01	-3.929520E-03	2.734900E+02
-3.703961E-01	-3.929367E-03	2.739400E+02
-3.703961E-01	-3.929520E-03	2.743700E+02
-3.703961E-01	-3.929520E-03	2.748100E+02
-3.704038E-01	-3.929444E-03	2.752600E+02
-3.703961E-01	-3.929290E-03	2.757000E+02
-3.703961E-01	-3.929367E-03	2.761500E+02
-3.703961E-01	-3.929214E-03	2.765900E+02
-3.704038E-01	-3.929059E-03	2.770400E+02
-3.704115E-01	-3.928983E-03	2.774800E+02
-3.704115E-01	-3.928983E-03	2.779300E+02
-3.704115E-01	-3.929136E-03	2.783600E+02
-3.704038E-01	-3.928369E-03	2.788000E+02
-3.704038E-01	-3.928062E-03	2.796900E+02
-3.704115E-01	-3.927985E-03	2.801400E+02
-3.704038E-01	-3.927908E-03	2.805800E+02
-3.704038E-01	-3.927985E-03	2.810300E+02
-3.704115E-01	-3.927985E-03	2.814600E+02
-3.704038E-01	-3.927985E-03	2.819100E+02
-3.704038E-01	-3.928138E-03	2.823500E+02
-3.704038E-01	-3.928138E-03	2.827900E+02
-3.704115E-01	-3.928138E-03	2.832400E+02
-3.704038E-01	-3.928062E-03	2.836800E+02
-3.704038E-01	-3.927985E-03	2.841300E+02
-3.704038E-01	-3.927755E-03	2.845600E+02
-3.704038E-01	-3.927755E-03	2.850100E+02
-3.703961E-01	-3.927832E-03	2.854500E+02
-3.704038E-01	-3.927832E-03	2.859000E+02
-3.704038E-01	-3.927832E-03	2.863500E+02
-3.704038E-01	-3.927678E-03	2.867800E+02
-3.704038E-01	-3.927448E-03	2.872300E+02
-3.704038E-01	-3.927602E-03	2.876700E+02
-3.704038E-01	-3.927371E-03	2.881200E+02
-3.704038E-01	-3.927448E-03	2.885600E+02
-3.704038E-01	-3.928293E-03	2.890100E+02
-3.704038E-01	-3.928293E-03	2.899000E+02
-3.704115E-01	-3.928293E-03	2.903400E+02
-3.704038E-01	-3.928062E-03	2.907800E+02
-3.704115E-01	-3.927909E-03	2.912200E+02
-3.704115E-01	-3.927832E-03	2.916600E+02
-3.704038E-01	-3.927678E-03	2.921100E+02
-3.704038E-01	-3.927525E-03	2.925500E+02
-3.704115E-01	-3.927602E-03	2.930000E+02
-3.704115E-01	-3.927525E-03	2.934300E+02
-3.704038E-01	-3.927602E-03	2.938700E+02
-3.704038E-01	-3.927448E-03	2.943200E+02
-3.704115E-01	-3.927371E-03	2.947600E+02
-3.704115E-01	-3.927448E-03	2.952100E+02
-3.704038E-01	-3.927448E-03	2.956500E+02
-3.704038E-01	-3.927525E-03	2.961000E+02
-3.704038E-01	-3.927295E-03	2.965400E+02
-3.704038E-01	-3.927218E-03	2.969900E+02
-3.704115E-01	-3.926988E-03	2.974300E+02
-3.704038E-01	-3.926988E-03	2.978600E+02
-3.703961E-01	-3.926835E-03	2.983100E+02
-3.704038E-01	-3.926758E-03	2.987500E+02
-3.703961E-01	-3.926527E-03	2.996400E+02
-3.704038E-01	-3.926835E-03	3.001200E+02
-3.704038E-01	-3.926835E-03	3.005600E+02
-3.704038E-01	-3.926681E-03	3.010100E+02
-3.704038E-01	-3.926604E-03	3.014500E+02
-3.704038E-01	-3.926450E-03	3.019000E+02
-3.704038E-01	-3.926527E-03	3.023400E+02
-3.704038E-01	-3.926450E-03	3.027800E+02
-3.704038E-01	-3.926450E-03	3.032200E+02
-3.704115E-01	-3.926527E-03	3.036600E+02
-3.704115E-01	-3.926450E-03	3.041100E+02
-3.704115E-01	-3.926527E-03	3.045500E+02
-3.704191E-01	-3.926374E-03	3.050100E+02
-3.704191E-01	-3.926297E-03	3.054500E+02
-3.704115E-01	-3.926144E-03	3.059000E+02
-3.704038E-01	-3.926144E-03	3.063300E+02
-3.704038E-01	-3.926450E-03	3.067700E+02
-3.704038E-01	-3.926144E-03	3.072200E+02
-3.704115E-01	-3.925990E-03	3.076600E+02
-3.704038E-01	-3.926067E-03	3.081100E+02
-3.704038E-01	-3.925990E-03	3.085500E+02
-3.704038E-01	-3.925146E-03	3.090000E+02
-3.704038E-01	-3.924992E-03	3.098700E+02
-3.704115E-01	-3.924992E-03	3.103200E+02
-3.704038E-01	-3.924916E-03	3.107600E+02
-3.704038E-01	-3.924608E-03	3.112100E+02
-3.703961E-01	-3.924455E-03	3.116500E+02
-3.704038E-01	-3.924531E-03	3.121000E+02
-3.704115E-01	-3.924301E-03	3.125300E+02
-3.704115E-01	-3.924531E-03	3.129800E+02
-3.704115E-01	-3.924531E-03	3.134200E+02
-3.704038E-01	-3.924301E-03	3.138600E+02
-3.703961E-01	-3.924378E-03	3.143100E+02
-3.704038E-01	-3.924225E-03	3.147500E+02
-3.704038E-01	-3.923994E-03	3.152000E+02
-3.704038E-01	-3.923994E-03	3.156300E+02
-3.704191E-01	-3.924301E-03	3.160800E+02
-3.704115E-01	-3.924301E-03	3.165200E+02
-3.704038E-01	-3.924148E-03	3.169700E+02
-3.704038E-01	-3.924148E-03	3.174100E+02
-3.704038E-01	-3.924148E-03	3.178500E+02
-3.704038E-01	-3.924071E-03	3.183000E+02
-3.704115E-01	-3.924301E-03	3.187300E+02
-3.703961E-01	-3.924225E-03	3.196200E+02
-3.704038E-01	-3.923994E-03	3.200700E+02
-3.704038E-01	-3.923994E-03	3.205100E+02
-3.704115E-01	-3.923918E-03	3.209600E+02
-3.704115E-01	-3.923994E-03	3.213900E+02
-3.704038E-01	-3.923994E-03	3.218300E+02
-3.704038E-01	-3.923994E-03	3.222800E+02
-3.704038E-01	-3.924148E-03	3.227200E+02
-3.704038E-01	-3.923841E-03	3.231700E+02
-3.704115E-01	-3.923764E-03	3.236100E+02
-3.704038E-01	-3.923611E-03	3.240600E+02
-3.704038E-01	-3.923611E-03	3.244900E+02
-3.704038E-01	-3.923380E-03	3.249400E+02
-3.704038E-01	-3.923227E-03	3.253800E+02
-3.704115E-01	-3.923073E-03	3.258200E+02
-3.704191E-01	-3.923073E-03	3.262700E+02
-3.704038E-01	-3.922920E-03	3.267100E+02
-3.704038E-01	-3.922690E-03	3.271600E+02
-3.704038E-01	-3.922613E-03	3.276000E+02
-3.704115E-01	-3.922690E-03	3.280500E+02
-3.704115E-01	-3.922459E-03	3.284800E+02
-3.704038E-01	-3.922613E-03	3.289300E+02
-3.703961E-01	-3.922382E-03	3.298000E+02
-3.704038E-01	-3.922382E-03	3.302500E+02
-3.704115E-01	-3.922152E-03	3.306900E+02
-3.704038E-01	-3.922229E-03	3.311300E+02
-3.704038E-01	-3.921922E-03	3.315700E+02
-3.704038E-01	-3.922152E-03	3.320300E+02
-3.704115E-01	-3.922459E-03	3.324600E+02
-3.704115E-01	-3.922459E-03	3.329100E+02
-3.704038E-01	-3.922382E-03	3.333500E+02
-3.704038E-01	-3.921999E-03	3.337900E+02
-3.704038E-01	-3.922152E-03	3.342400E+02
-3.704115E-01	-3.922229E-03	3.346700E+02
-3.704038E-01	-3.922076E-03	3.351200E+02
-3.704038E-01	-3.921845E-03	3.355600E+02
-3.704038E-01	-3.921692E-03	3.360100E+02
-3.704038E-01	-3.921769E-03	3.364600E+02
-3.704115E-01	-3.921769E-03	3.369100E+02
-3.704038E-01	-3.921615E-03	3.373500E+02
-3.704038E-01	-3.921462E-03	3.377800E+02
-3.704115E-01	-3.921692E-03	3.382300E+02
-3.704115E-01	-3.921462E-03	3.386700E+02
-3.704038E-01	-3.922230E-03	3.391200E+02
-3.703961E-01	-3.922000E-03	3.400100E+02
-3.704038E-01	-3.922076E-03	3.404500E+02
-3.704115E-01	-3.922153E-03	3.409000E+02
-3.704115E-01	-3.922076E-03	3.413300E+02
-3.704038E-01	-3.921845E-03	3.417700E+02
-3.704038E-01	-3.921769E-03	3.422200E+02
-3.704038E-01	-3.921615E-03	3.426600E+02
-3.704115E-01	-3.921615E-03	3.431100E+02
-3.704115E-01	-3.921769E-03	3.435400E+02
-3.704038E-01	-3.921462E-03	3.439900E+02
-3.704038E-01	-3.921539E-03	3.444300E+02
-3.704115E-01	-3.921385E-03	3.448700E+02
-3.704038E-01	-3.921232E-03	3.453200E+02
-3.704115E-01	-3.921155E-03	3.457600E+02
-3.704191E-01	-3.921079E-03	3.462100E+02
-3.704115E-01	-3.921001E-03	3.466500E+02
-3.704038E-01	-3.921001E-03	3.471000E+02
-3.704038E-01	-3.921001E-03	3.475400E+02
-3.704038E-01	-3.921155E-03	3.479900E+02
-3.704115E-01	-3.921001E-03	3.484300E+02
-3.704115E-01	-3.920848E-03	3.488600E+02
-3.704038E-01	-3.920848E-03	3.497500E+02
-3.704038E-01	-3.920772E-03	3.502000E+02
-3.704038E-01	-3.920848E-03	3.506400E+02
-3.703961E-01	-3.920772E-03	3.510900E+02
-3.704038E-01	-3.920694E-03	3.515300E+02
-3.704115E-01	-3.920694E-03	3.519800E+02
-3.704038E-01	-3.920464E-03	3.524100E+02
-3.704038E-01	-3.920618E-03	3.528500E+02
-3.704038E-01	-3.920311E-03	3.533000E+02
-3.704038E-01	-3.920464E-03	3.537400E+02
-3.703961E-01	-3.920234E-03	3.541900E+02
-3.704038E-01	-3.920157E-03	3.546200E+02
-3.704115E-01	-3.920004E-03	3.550700E+02
-3.703961E-01	-3.920004E-03	3.555100E+02
-3.704038E-01	-3.919850E-03	3.559700E+02
-3.704038E-01	-3.919697E-03	3.564100E+02
-3.704038E-01	-3.919927E-03	3.568500E+02
-3.704038E-01	-3.919774E-03	3.573000E+02
-3.704115E-01	-3.919697E-03	3.577300E+02
-3.704115E-01	-3.919620E-03	3.581800E+02
-3.704038E-01	-3.919467E-03	3.586200E+02
-3.703961E-01	-3.918622E-03	3.590700E+02
-3.703961E-01	-3.918853E-03	3.599500E+02
-3.703884E-01	-3.918929E-03	3.603800E+02
-3.703961E-01	-3.918929E-03	3.608200E+02
-3.704038E-01	-3.918622E-03	3.612700E+02
-3.703961E-01	-3.918468E-03	3.617100E+02
-3.703884E-01	-3.918468E-03	3.621600E+02
-3.703961E-01	-3.918468E-03	3.626000E+02
-3.703961E-01	-3.918392E-03	3.630400E+02
-3.703961E-01	-3.918392E-03	3.634800E+02
-3.703961E-01	-3.918238E-03	3.639300E+02
-3.704038E-01	-3.918392E-03	3.643700E+02
-3.704038E-01	-3.918468E-03	3.648100E+02
-3.703961E-01	-3.918468E-03	3.652600E+02
-3.703961E-01	-3.918238E-03	3.657000E+02
-3.703961E-01	-3.918162E-03	3.661400E+02
-3.703961E-01	-3.918085E-03	3.665800E+02
-3.704038E-01	-3.918162E-03	3.670300E+02
-3.704038E-01	-3.918085E-03	3.674700E+02
-3.703961E-01	-3.917932E-03	3.679200E+02
-3.703961E-01	-3.917778E-03	3.683600E+02
-3.703884E-01	-3.917701E-03	3.687900E+02
-3.703961E-01	-3.917548E-03	3.696800E+02
-3.704038E-01	-3.917624E-03	3.701300E+02
-3.704038E-01	-3.917317E-03	3.705700E+02
-3.703961E-01	-3.917317E-03	3.710200E+02
-3.703961E-01	-3.917164E-03	3.714600E+02
-3.703961E-01	-3.917164E-03	3.719100E+02
-3.703884E-01	-3.917241E-03	3.723400E+02
-3.704038E-01	-3.917164E-03	3.727800E+02
-3.704038E-01	-3.917010E-03	3.732300E+02
-3.703884E-01	-3.916857E-03	3.736700E+02
-3.703884E-01	-3.916550E-03	3.741200E+02
-3.703961E-01	-3.916319E-03	3.745600E+02
-3.703884E-01	-3.916166E-03	3.750100E+02
-3.703961E-01	-3.916089E-03	3.754400E+02
-3.703961E-01	-3.916089E-03	3.758900E+02
-3.704038E-01	-3.916013E-03	3.763300E+02
-3.703884E-01	-3.916013E-03	3.767700E+02
-3.703961E-01	-3.916013E-03	3.772200E+02
-3.703884E-01	-3.915706E-03	3.776600E+02
-3.704038E-01	-3.915629E-03	3.781100E+02
-3.704038E-01	-3.915476E-03	3.785400E+02
-3.704115E-01	-3.916090E-03	3.789900E+02
-3.703961E-01	-3.915859E-03	3.798900E+02
-3.704038E-01	-3.915783E-03	3.803400E+02
-3.704038E-01	-3.915629E-03	3.807800E+02
-3.703961E-01	-3.915553E-03	3.812300E+02
-3.704115E-01	-3.915553E-03	3.816700E+02
-3.704115E-01	-3.915246E-03	3.821200E+02
-3.704038E-01	-3.915399E-03	3.825600E+02
-3.703961E-01	-3.915322E-03	3.830100E+02
-3.704038E-01	-3.915246E-03	3.834400E+02
-3.704038E-01	-3.915169E-03	3.838900E+02
-3.704038E-01	-3.915015E-03	3.843300E+02
-3.704115E-01	-3.914939E-03	3.847700E+02
-3.704115E-01	-3.914939E-03	3.852200E+02
-3.704038E-01	-3.914785E-03	3.856600E+02
-3.704038E-01	-3.914632E-03	3.861100E+02
-3.704038E-01	-3.914325E-03	3.865500E+02
-3.704038E-01	-3.914478E-03	3.869900E+02
-3.704038E-01	-3.914555E-03	3.874300E+02
-3.704038E-01	-3.914325E-03	3.878700E+02
-3.704115E-01	-3.914248E-03	3.883200E+02
-3.704115E-01	-3.913634E-03	3.887600E+02
-3.703961E-01	-3.913480E-03	3.896400E+02
-3.703961E-01	-3.913480E-03	3.900900E+02
-3.704038E-01	-3.913480E-03	3.905300E+02
-3.703961E-01	-3.913403E-03	3.909800E+02
-3.704038E-01	-3.913480E-03	3.914100E+02
-3.704115E-01	-3.913480E-03	3.918500E+02
-3.704038E-01	-3.913250E-03	3.923000E+02
-3.703961E-01	-3.913019E-03	3.927400E+02
-3.704038E-01	-3.913019E-03	3.931900E+02
-3.704115E-01	-3.913173E-03	3.936300E+02
-3.704115E-01	-3.913096E-03	3.940800E+02
-3.704038E-01	-3.913019E-03	3.945200E+02
-3.704038E-01	-3.912866E-03	3.949700E+02
-3.704115E-01	-3.912713E-03	3.954100E+02
-3.704038E-01	-3.912406E-03	3.958400E+02
-3.704038E-01	-3.912252E-03	3.962900E+02
-3.704038E-01	-3.912252E-03	3.967300E+02
-3.704038E-01	-3.912099E-03	3.971800E+02
-3.704038E-01	-3.912252E-03	3.976200E+02
-3.704038E-01	-3.912099E-03	3.980700E+02
-3.704038E-01	-3.911945E-03	3.985100E+02
-3.704038E-01	-3.912637E-03	3.989600E+02
-3.704038E-01	-3.912637E-03	3.998400E+02
-3.704038E-01	-3.912560E-03	4.002900E+02
-3.703961E-01	-3.912329E-03	4.007200E+02
-3.704038E-01	-3.912099E-03	4.011700E+02
-3.704115E-01	-3.911946E-03	4.016100E+02
-3.703961E-01	-3.911869E-03	4.020600E+02
-3.703961E-01	-3.911792E-03	4.025000E+02
-3.704038E-01	-3.911561E-03	4.029500E+02
-3.704038E-01	-3.911792E-03	4.033900E+02
-3.703961E-01	-3.911792E-03	4.038300E+02
-3.704115E-01	-3.911869E-03	4.042800E+02
-3.704038E-01	-3.911332E-03	4.047200E+02
-3.703961E-01	-3.911332E-03	4.051700E+02
-3.704038E-01	-3.911255E-03	4.056100E+02
-3.704038E-01	-3.911178E-03	4.060600E+02
-3.704038E-01	-3.911178E-03	4.064900E+02
-3.704115E-01	-3.910794E-03	4.069400E+02
-3.703961E-01	-3.910948E-03	4.073800E+02
-3.704038E-01	-3.911024E-03	4.078200E+02
-3.703961E-01	-3.910948E-03	4.082700E+02
-3.704038E-01	-3.909950E-03	4.087100E+02
-3.703961E-01	-3.909873E-03	4.095900E+02
-3.704038E-01	-3.909873E-03	4.100400E+02
-3.704038E-01	-3.909643E-03	4.104700E+02
-3.704038E-01	-3.909566E-03	4.109200E+02
-3.704115E-01	-3.909336E-03	4.113600E+02
-3.704038E-01	-3.909413E-03	4.118000E+02
-3.704038E-01	-3.909336E-03	4.122500E+02
-3.704038E-01	-3.909643E-03	4.126900E+02
-3.704115E-01	-3.909336E-03	4.131400E+02
-3.704038E-01	-3.909336E-03	4.135700E+02
-3.704038E-01	-3.909259E-03	4.140200E+02
-3.704038E-01	-3.909106E-03	4.144600E+02
-3.703961E-01	-3.909029E-03	4.149100E+02
-3.704115E-01	-3.908799E-03	4.153500E+02
-3.704038E-01	-3.908722E-03	4.157900E+02
-3.703961E-01	-3.908722E-03	4.162400E+02
-3.704038E-01	-3.908492E-03	4.166700E+02
-3.703961E-01	-3.908261E-03	4.171200E+02
-3.704038E-01	-3.908415E-03	4.175700E+02
-3.704038E-01	-3.908492E-03	4.180200E+02
-3.704038E-01	-3.908338E-03	4.184500E+02
-3.704038E-01	-3.908569E-03	4.189000E+02
-3.704038E-01	-3.908184E-03	4.197700E+02
-3.704115E-01	-3.908031E-03	4.202200E+02
-3.704038E-01	-3.907877E-03	4.206600E+02
-3.703961E-01	-3.907954E-03	4.211100E+02
-3.704038E-01	-3.907647E-03	4.215500E+02
-3.704038E-01	-3.907494E-03	4.219900E+02
-3.704038E-01	-3.907647E-03	4.224300E+02
-3.703961E-01	-3.907571E-03	4.228700E+02
-3.704115E-01	-3.907417E-03	4.233200E+02
-3.704038E-01	-3.907494E-03	4.237600E+02
-3.704038E-01	-3.907264E-03	4.242100E+02
-3.704038E-01	-3.907110E-03	4.246500E+02
-3.704038E-01	-3.907110E-03	4.251000E+02
-3.704038E-01	-3.907110E-03	4.255300E+02
-3.704038E-01	-3.907033E-03	4.259800E+02
-3.704115E-01	-3.907110E-03	4.264200E+02
-3.704038E-01	-3.906957E-03	4.268600E+02
-3.704038E-01	-3.906880E-03	4.273200E+02
-3.704038E-01	-3.906880E-03	4.277500E+02
-3.703961E-01	-3.906496E-03	4.282000E+02
-3.704038E-01	-3.906343E-03	4.286400E+02
-3.704038E-01	-3.906420E-03	4.290900E+02
-3.703961E-01	-3.906650E-03	4.299700E+02
-3.704038E-01	-3.906803E-03	4.304100E+02
-3.704115E-01	-3.906726E-03	4.308500E+02
-3.704038E-01	-3.906573E-03	4.313000E+02
-3.704038E-01	-3.906420E-03	4.317300E+02
-3.704115E-01	-3.906113E-03	4.321900E+02
-3.704038E-01	-3.906036E-03	4.326300E+02
-3.703961E-01	-3.906113E-03	4.330800E+02
-3.704038E-01	-3.906189E-03	4.335200E+02
-3.704038E-01	-3.905882E-03	4.339700E+02
-3.703961E-01	-3.905652E-03	4.344100E+02
-3.704038E-01	-3.905806E-03	4.348400E+02
-3.704038E-01	-3.905652E-03	4.352900E+02
-3.704038E-01	-3.905575E-03	4.357300E+02
-3.704038E-01	-3.905345E-03	4.361800E+02
-3.704038E-01	-3.905499E-03	4.366200E+02
-3.704038E-01	-3.905345E-03	4.370700E+02
-3.704038E-01	-3.905115E-03	4.375100E+02
-3.703961E-01	-3.905038E-03	4.379600E+02
-3.704038E-01	-3.905115E-03	4.384000E+02
-3.704038E-01	-3.904731E-03	4.388300E+02
-3.703961E-01	-3.904424E-03	4.397200E+02
-3.703961E-01	-3.904270E-03	4.401700E+02
-3.704038E-01	-3.904578E-03	4.406000E+02
-3.703961E-01	-3.904501E-03	4.410500E+02
-3.703961E-01	-3.904347E-03	4.414800E+02
-3.704038E-01	-3.904194E-03	4.419400E+02
-3.704038E-01	-3.903963E-03	4.423700E+02
-3.704038E-01	-3.903887E-03	4.428100E+02
-3.703961E-01	-3.903963E-03	4.432600E+02
-3.704038E-01	-3.903734E-03	4.437000E+02
-3.704038E-01	-3.903810E-03	4.441500E+02
-3.704038E-01	-3.903734E-03	4.445800E+02
-3.703961E-01	-3.903656E-03	4.450300E+02
-3.704115E-01	-3.903656E-03	4.454700E+02
-3.704038E-01	-3.903656E-03	4.459300E+02
-3.704038E-01	-3.903350E-03	4.463700E+02
-3.704038E-01	-3.903503E-03	4.468000E+02
-3.703961E-01	-3.903119E-03	4.472500E+02
-3.704038E-01	-3.903043E-03	4.476900E+02
-3.703961E-01	-3.903043E-03	4.481400E+02
-3.703961E-01	-3.903043E-03	4.485800E+02
-3.703961E-01	-3.903657E-03	4.490300E+02
-3.703961E-01	-3.903503E-03	4.499200E+02
-3.703961E-01	-3.903273E-03	4.503500E+02
-3.704038E-01	-3.903273E-03	4.507900E+02
-3.704038E-01	-3.903273E-03	4.512400E+02
-3.704038E-01	-3.903120E-03	4.516800E+02
-3.704038E-01	-3.903043E-03	4.521300E+02
-3.704115E-01	-3.902813E-03	4.525700E+02
-3.704038E-01	-3.902736E-03	4.530200E+02
-3.703884E-01	-3.902506E-03	4.534600E+02
-3.704038E-01	-3.902276E-03	4.539100E+02
-3.704115E-01	-3.902276E-03	4.543500E+02
-3.704038E-01	-3.902199E-03	4.547900E+02
-3.704038E-01	-3.902276E-03	4.552400E+02
-3.703961E-01	-3.902122E-03	4.556800E+02
-3.704038E-01	-3.902122E-03	4.561300E+02
-3.704115E-01	-3.902122E-03	4.565700E+02
-3.704038E-01	-3.901892E-03	4.570200E+02
-3.704038E-01	-3.901662E-03	4.574500E+02
-3.704038E-01	-3.901585E-03	4.579000E+02
-3.704038E-01	-3.901508E-03	4.583400E+02
-3.704038E-01	-3.900357E-03	4.587800E+02
-3.703961E-01	-3.900433E-03	4.596600E+02
-3.704038E-01	-3.900280E-03	4.601300E+02
-3.704038E-01	-3.900126E-03	4.605700E+02
-3.704038E-01	-3.900280E-03	4.610200E+02
-3.704038E-01	-3.900126E-03	4.614700E+02
-3.704038E-01	-3.900049E-03	4.619200E+02
-3.703961E-01	-3.900126E-03	4.623500E+02
-3.704038E-01	-3.899819E-03	4.627900E+02
-3.704038E-01	-3.899666E-03	4.632400E+02
-3.704038E-01	-3.899589E-03	4.636800E+02
-3.704038E-01	-3.899436E-03	4.641300E+02
-3.703961E-01	-3.899359E-03	4.645700E+02
-3.703961E-01	-3.899359E-03	4.650200E+02
-3.704038E-01	-3.899282E-03	4.654600E+02
-3.704038E-01	-3.899282E-03	4.659000E+02
-3.704038E-01	-3.899205E-03	4.663400E+02
-3.704038E-01	-3.899129E-03	4.667800E+02
-3.704038E-01	-3.898975E-03	4.672300E+02
-3.704115E-01	-3.898898E-03	4.676700E+02
-3.704038E-01	-3.898668E-03	4.681200E+02
-3.704038E-01	-3.898592E-03	4.685600E+02
-3.704038E-01	-3.898592E-03	4.690100E+02
-3.704038E-01	-3.898361E-03	4.698900E+02
-3.704038E-01	-3.898361E-03	4.703300E+02
-3.704115E-01	-3.898284E-03	4.707700E+02
-3.704038E-01	-3.898208E-03	4.712200E+02
-3.704038E-01	-3.898054E-03	4.716600E+02
-3.704038E-01	-3.898131E-03	4.721100E+02
-3.704038E-01	-3.898208E-03	4.725500E+02
-3.704115E-01	-3.898131E-03	4.730000E+02
-3.704115E-01	-3.898131E-03	4.734300E+02
-3.704115E-01	-3.897977E-03	4.738700E+02
-3.704115E-01	-3.897670E-03	4.743200E+02
-3.704115E-01	-3.897670E-03	4.747600E+02
-3.704038E-01	-3.897747E-03	4.752100E+02
-3.704115E-01	-3.897670E-03	4.756500E+02
-3.704115E-01	-3.897594E-03	4.761000E+02
-3.704038E-01	-3.897517E-03	4.765400E+02
-3.704115E-01	-3.897670E-03	4.769900E+02
-3.704115E-01	-3.897364E-03	4.774300E+02
-3.704115E-01	-3.897133E-03	4.778700E+02
-3.704115E-01	-3.897056E-03	4.783200E+02
-3.704038E-01	-3.896980E-03	4.787600E+02
-3.704115E-01	-3.896749E-03	4.796400E+02
-3.704038E-01	-3.896673E-03	4.800900E+02
-3.704038E-01	-3.896442E-03	4.805300E+02
-3.704038E-01	-3.896289E-03	4.809800E+02
-3.704115E-01	-3.896289E-03	4.814200E+02
-3.704038E-01	-3.896135E-03	4.818600E+02
-3.704038E-01	-3.895905E-03	4.823100E+02
-3.704038E-01	-3.895905E-03	4.827400E+02
-3.704038E-01	-3.895905E-03	4.832000E+02
-3.704115E-01	-3.895982E-03	4.836300E+02
-3.704038E-01	-3.895905E-03	4.840800E+02
-3.704038E-01	-3.895752E-03	4.845200E+02
-3.704038E-01	-3.895675E-03	4.849700E+02
-3.704038E-01	-3.895522E-03	4.854100E+02
-3.703961E-01	-3.895445E-03	4.858500E+02
-3.703961E-01	-3.895675E-03	4.862900E+02
-3.703961E-01	-3.895598E-03	4.867300E+02
-3.703884E-01	-3.895598E-03	4.871800E+02
-3.703884E-01	-3.895522E-03	4.876200E+02
-3.703884E-01	-3.895368E-03	4.880700E+02
-3.703961E-01	-3.895368E-03	4.885100E+02
-3.703961E-01	-3.896059E-03	4.889600E+02
-3.703961E-01	-3.895982E-03	4.898300E+02
-3.704038E-01	-3.895829E-03	4.902800E+02
-3.704038E-01	-3.895829E-03	4.907300E+02
-3.704038E-01	-3.895829E-03	4.911800E+02
-3.703961E-01	-3.895752E-03	4.916100E+02
-3.703961E-01	-3.895752E-03	4.920600E+02
-3.704038E-01	-3.895676E-03	4.925000E+02
-3.703961E-01	-3.895752E-03	4.929500E+02
-3.703961E-01	-3.895752E-03	4.933800E+02
-3.703961E-01	-3.895598E-03	4.938200E+02
-3.703961E-01	-3.895598E-03	4.942700E+02
-3.703961E-01	-3.895445E-03	4.947100E+02
-3.703961E-01	-3.895291E-03	4.951600E+02
-3.703961E-01	-3.895215E-03	4.956000E+02
-3.704038E-01	-3.895061E-03	4.960500E+02
-3.704038E-01	-3.894908E-03	4.964800E+02
-3.703961E-01	-3.894908E-03	4.969300E+02
-3.703884E-01	-3.894908E-03	4.973700E+02
-3.703884E-01	-3.894908E-03	4.978100E+02
-3.703884E-01	-3.894754E-03	4.982600E+02
-3.703808E-01	-3.894294E-03	4.987000E+02
-3.703808E-01	-3.894063E-03	4.995900E+02
-3.703884E-01	-3.893987E-03	5.000400E+02
-3.704038E-01	-3.893987E-03	5.004800E+02
-3.703961E-01	-3.894217E-03	5.009300E+02
-3.703961E-01	-3.893987E-03	5.013700E+02
-3.703961E-01	-3.893833E-03	5.018100E+02
-3.703961E-01	-3.893680E-03	5.022600E+02
-3.703961E-01	-3.893526E-03	5.026900E+02
-3.703961E-01	-3.893526E-03	5.031400E+02
-3.703961E-01	-3.893526E-03	5.035800E+02
-3.703961E-01	-3.893526E-03	5.040300E+02
-3.704038E-01	-3.893449E-03	5.044700E+02
-3.703884E-01	-3.893449E-03	5.049200E+02
-3.703808E-01	-3.893296E-03	5.053700E+02
-3.703808E-01	-3.893219E-03	5.058000E+02
-3.703808E-01	-3.893219E-03	5.062500E+02
-3.703884E-01	-3.893219E-03	5.066900E+02
-3.704038E-01	-3.893219E-03	5.071400E+02
-3.703961E-01	-3.893066E-03	5.075800E+02
-3.703961E-01	-3.892989E-03	5.080300E+02
-3.703961E-01	-3.892913E-03	5.084600E+02
-3.704115E-01	-3.891914E-03	5.089100E+02
-3.704038E-01	-3.891914E-03	5.097800E+02
-3.704115E-01	-3.891838E-03	5.102400E+02
-3.704038E-01	-3.891991E-03	5.106800E+02
-3.703961E-01	-3.891914E-03	5.111300E+02
-3.703884E-01	-3.891838E-03	5.115600E+02
-3.703808E-01	-3.891607E-03	5.120100E+02
-3.703961E-01	-3.891684E-03	5.124500E+02
-3.704115E-01	-3.891684E-03	5.129000E+02
-3.704115E-01	-3.891530E-03	5.133300E+02
-3.704115E-01	-3.891454E-03	5.137700E+02
-3.704115E-01	-3.891530E-03	5.142300E+02
-3.704115E-01	-3.891377E-03	5.146600E+02
-3.704038E-01	-3.891300E-03	5.151100E+02
-3.704038E-01	-3.891147E-03	5.155500E+02
-3.704038E-01	-3.890994E-03	5.160000E+02
-3.703961E-01	-3.890763E-03	5.164400E+02
-3.703961E-01	-3.890533E-03	5.168900E+02
-3.703884E-01	-3.890456E-03	5.173300E+02
-3.703884E-01	-3.890379E-03	5.177600E+02
-3.703884E-01	-3.890149E-03	5.182100E+02
-3.704038E-01	-3.889996E-03	5.186500E+02
-3.704115E-01	-3.889842E-03	5.191000E+02
-3.704038E-01	-3.889459E-03	5.199800E+02
-3.704038E-01	-3.889228E-03	5.204200E+02
-3.704115E-01	-3.889075E-03	5.208600E+02
-3.704038E-01	-3.889152E-03	5.213100E+02
-3.704038E-01	-3.888998E-03	5.217400E+02
-3.703961E-01	-3.888921E-03	5.221900E+02
-3.703961E-01	-3.888768E-03	5.226300E+02
-3.703884E-01	-3.888691E-03	5.230800E+02
-3.703808E-01	-3.888691E-03	5.235200E+02
-3.703961E-01	-3.888768E-03	5.239800E+02
-3.704038E-01	-3.888691E-03	5.244100E+02
-3.704038E-01	-3.888461E-03	5.248500E+02
-3.704115E-01	-3.888384E-03	5.253000E+02
-3.704038E-01	-3.888308E-03	5.257400E+02
-3.704038E-01	-3.888077E-03	5.261900E+02
-3.704115E-01	-3.887924E-03	5.266300E+02
-3.704115E-01	-3.888001E-03	5.270800E+02
-3.703961E-01	-3.887770E-03	5.275100E+02
-3.703884E-01	-3.887693E-03	5.279600E+02
-3.703884E-01	-3.887693E-03	5.284000E+02
-3.703884E-01	-3.887694E-03	5.288400E+02
-3.703961E-01	-3.887309E-03	5.297200E+02
-3.704038E-01	-3.887309E-03	5.301700E+02
-3.704038E-01	-3.887233E-03	5.306100E+02
-3.704038E-01	-3.887309E-03	5.310500E+02
-3.704038E-01	-3.887079E-03	5.314900E+02
-3.704115E-01	-3.886619E-03	5.319400E+02
-3.704115E-01	-3.886465E-03	5.323800E+02
-3.703961E-01	-3.886312E-03	5.328200E+02
-3.703884E-01	-3.886235E-03	5.332700E+02
-3.703884E-01	-3.886082E-03	5.337000E+02
-3.703884E-01	-3.886158E-03	5.341500E+02
-3.703961E-01	-3.885928E-03	5.345900E+02
-3.704038E-01	-3.885621E-03	5.350400E+02
-3.704115E-01	-3.885775E-03	5.354800E+02
-3.704038E-01	-3.885851E-03	5.359300E+02
-3.704038E-01	-3.885775E-03	5.363700E+02
-3.704115E-01	-3.885468E-03	5.368000E+02
-3.704038E-01	-3.885391E-03	5.372500E+02
-3.704038E-01	-3.885391E-03	5.376900E+02
-3.704038E-01	-3.885314E-03	5.381400E+02
-3.704038E-01	-3.885161E-03	5.385800E+02
-3.703884E-01	-3.885161E-03	5.390300E+02
-3.703884E-01	-3.884700E-03	5.399400E+02
-3.703808E-01	-3.884470E-03	5.403800E+02
-3.703731E-01	-3.884547E-03	5.408200E+02
-3.703808E-01	-3.884470E-03	5.412700E+02
-3.703808E-01	-3.884240E-03	5.417100E+02
-3.703808E-01	-3.884163E-03	5.421500E+02
-3.703731E-01	-3.884086E-03	5.425900E+02
-3.703808E-01	-3.884010E-03	5.430400E+02
-3.703808E-01	-3.884010E-03	5.434800E+02
-3.703808E-01	-3.883933E-03	5.439300E+02
-3.703884E-01	-3.883933E-03	5.443700E+02
-3.703884E-01	-3.883933E-03	5.448100E+02
-3.703961E-01	-3.883856E-03	5.452500E+02
-3.703884E-01	-3.883779E-03	5.456900E+02
-3.703961E-01	-3.883626E-03	5.461400E+02
-3.704038E-01	-3.883626E-03	5.465800E+02
-3.704038E-01	-3.883472E-03	5.470300E+02
-3.703961E-01	-3.883472E-03	5.474700E+02
-3.704038E-01	-3.883319E-03	5.479100E+02
-3.704038E-01	-3.883319E-03	5.483500E+02
-3.704038E-01	-3.883242E-03	5.487900E+02
-3.703961E-01	-3.883012E-03	5.496700E+02
-3.704038E-01	-3.882935E-03	5.501200E+02
-3.704038E-01	-3.882782E-03	5.505600E+02
-3.703961E-01	-3.882705E-03	5.510100E+02
-3.704038E-01	-3.882705E-03	5.514400E+02
-3.704038E-01	-3.882705E-03	5.519000E+02
-3.704115E-01	-3.882628E-03	5.523300E+02
-3.704038E-01	-3.882705E-03	5.527700E+02
-3.704038E-01	-3.882628E-03	5.532300E+02
-3.704115E-01	-3.882474E-03	5.536600E+02
-3.704038E-01	-3.882398E-03	5.541100E+02
-3.704038E-01	-3.882321E-03	5.545500E+02
-3.703961E-01	-3.882398E-03	5.550000E+02
-3.703961E-01	-3.882168E-03	5.554400E+02
-3.703961E-01	-3.882091E-03	5.558900E+02
-3.703961E-01	-3.882168E-03	5.563300E+02
-3.703884E-01	-3.881937E-03	5.567600E+02
-3.703884E-01	-3.881861E-03	5.572100E+02
-3.703884E-01	-3.881937E-03	5.576500E+02
-3.703884E-01	-3.882014E-03	5.581100E+02
-3.703961E-01	-3.881784E-03	5.585400E+02
-3.703884E-01	-3.881784E-03	5.589900E+02
-3.703884E-01	-3.881400E-03	5.598600E+02
-3.703884E-01	-3.881400E-03	5.603100E+02
-3.703961E-01	-3.881323E-03	5.607400E+02
-3.703961E-01	-3.881247E-03	5.611900E+02
-3.703961E-01	-3.881170E-03	5.616300E+02
-3.703884E-01	-3.881170E-03	5.620900E+02
-3.703961E-01	-3.881017E-03	5.625200E+02
-3.703961E-01	-3.880940E-03	5.629800E+02
-3.703884E-01	-3.880786E-03	5.634100E+02
-3.703961E-01	-3.880786E-03	5.638500E+02
-3.703961E-01	-3.880556E-03	5.643000E+02
-3.703961E-01	-3.880403E-03	5.647400E+02
-3.703961E-01	-3.880173E-03	5.651900E+02
-3.703961E-01	-3.880019E-03	5.656300E+02
-3.703961E-01	-3.880173E-03	5.660800E+02
-3.704038E-01	-3.879865E-03	5.665200E+02
-3.703961E-01	-3.879635E-03	5.669600E+02
-3.704038E-01	-3.879712E-03	5.674000E+02
-3.704038E-01	-3.879558E-03	5.678400E+02
-3.703961E-01	-3.879405E-03	5.682900E+02
-3.703961E-01	-3.879405E-03	5.687300E+02
-3.703884E-01	-3.879405E-03	5.696100E+02
-3.703884E-01	-3.879251E-03	5.700600E+02
-3.703961E-01	-3.879328E-03	5.705000E+02
-3.703961E-01	-3.879098E-03	5.709500E+02
-3.703961E-01	-3.879021E-03	5.713900E+02
-3.703961E-01	-3.878714E-03	5.718300E+02
-3.703961E-01	-3.878637E-03	5.722800E+02
-3.704038E-01	-3.878407E-03	5.727200E+02
-3.703961E-01	-3.878484E-03	5.731700E+02
-3.703884E-01	-3.878407E-03	5.736000E+02
-3.703808E-01	-3.878177E-03	5.740500E+02
-3.703808E-01	-3.877947E-03	5.744900E+02
-3.703808E-01	-3.877947E-03	5.749500E+02
-3.703731E-01	-3.877947E-03	5.753900E+02
-3.703884E-01	-3.877870E-03	5.758300E+02
-3.703884E-01	-3.877870E-03	5.762800E+02
-3.703961E-01	-3.877793E-03	5.767100E+02
-3.703961E-01	-3.877793E-03	5.771600E+02
-3.703961E-01	-3.877716E-03	5.776000E+02
-3.703961E-01	-3.877409E-03	5.780500E+02
-3.703961E-01	-3.877486E-03	5.784900E+02
-3.703961E-01	-3.877332E-03	5.789400E+02
-3.703731E-01	-3.877025E-03	5.798100E+02
-3.703731E-01	-3.876872E-03	5.802600E+02
-3.703808E-01	-3.876796E-03	5.806900E+02
-3.703808E-01	-3.876642E-03	5.811400E+02
-3.703808E-01	-3.876412E-03	5.815800E+02
-3.703884E-01	-3.876258E-03	5.820300E+02
-3.703884E-01	-3.876412E-03	5.824700E+02
-3.703961E-01	-3.876104E-03	5.829200E+02
-3.703808E-01	-3.875874E-03	5.833500E+02
-3.703884E-01	-3.875874E-03	5.837900E+02
-3.703961E-01	-3.875798E-03	5.842400E+02
-3.703961E-01	-3.875567E-03	5.846800E+02
-3.703961E-01	-3.875337E-03	5.851300E+02
-3.703961E-01	-3.875184E-03	5.855700E+02
-3.703961E-01	-3.875184E-03	5.860200E+02
-3.703961E-01	-3.875337E-03	5.864500E+02
-3.703884E-01	-3.875184E-03	5.869000E+02
-3.703808E-01	-3.875184E-03	5.873400E+02
-3.703808E-01	-3.875184E-03	5.877800E+02
-3.703808E-01	-3.875030E-03	5.882300E+02
-3.703808E-01	-3.874954E-03	5.886700E+02
-3.703808E-01	-3.875645E-03	5.891200E+02
-3.703808E-01	-3.875414E-03	5.900000E+02
-3.703884E-01	-3.875568E-03	5.904400E+02
-3.703884E-01	-3.875568E-03	5.908800E+02
-3.703961E-01	-3.875491E-03	5.913300E+02
-3.703961E-01	-3.875338E-03	5.917600E+02
-3.703961E-01	-3.875107E-03	5.922100E+02
-3.703731E-01	-3.874954E-03	5.926500E+02
-3.703731E-01	-3.874800E-03	5.931000E+02
-3.703808E-01	-3.874647E-03	5.935400E+02
-3.703808E-01	-3.874493E-03	5.939900E+02
-3.703884E-01	-3.874724E-03	5.944300E+02
-3.703884E-01	-3.874570E-03	5.948600E+02
-3.703961E-01	-3.874493E-03	5.953100E+02
-3.703961E-01	-3.874493E-03	5.957500E+02
-3.703961E-01	-3.874186E-03	5.962000E+02
-3.703884E-01	-3.873880E-03	5.966400E+02
-3.703808E-01	-3.874110E-03	5.970900E+02
-3.703731E-01	-3.874110E-03	5.975200E+02
-3.703731E-01	-3.873803E-03	5.979700E+02
-3.703808E-01	-3.873956E-03	5.984100E+02
-3.703884E-01	-3.874110E-03	5.988500E+02
-3.703961E-01	-3.873572E-03	5.997300E+02
-3.704038E-01	-3.873496E-03	6.001800E+02
-3.703884E-01	-3.873496E-03	6.006200E+02
-3.703884E-01	-3.873419E-03	6.010700E+02
-3.703884E-01	-3.873342E-03	6.015000E+02
-3.703961E-01	-3.873496E-03	6.019500E+02
-3.703961E-01	-3.873342E-03	6.023900E+02
-3.704038E-01	-3.873342E-03	6.028300E+02
-3.704038E-01	-3.873265E-03	6.032900E+02
-3.703884E-01	-3.873112E-03	6.037200E+02
-3.703808E-01	-3.873035E-03	6.041700E+02
-3.703884E-01	-3.872805E-03	6.046100E+02
-3.704038E-01	-3.872805E-03	6.050600E+02
-3.703961E-01	-3.872575E-03	6.055000E+02
-3.703961E-01	-3.872498E-03	6.059500E+02
-3.703884E-01	-3.872728E-03	6.063900E+02
-3.703808E-01	-3.872652E-03	6.068200E+02
-3.703884E-01	-3.872421E-03	6.072700E+02
-3.703884E-01	-3.872421E-03	6.077100E+02
-3.703961E-01	-3.872114E-03	6.081600E+02
-3.703961E-01	-3.872037E-03	6.086000E+02
-3.704038E-01	-3.871270E-03	6.090500E+02
-3.703884E-01	-3.871270E-03	6.099300E+02
-3.703884E-01	-3.871270E-03	6.103600E+02
-3.703961E-01	-3.871116E-03	6.108000E+02
-3.703961E-01	-3.870963E-03	6.112500E+02
-3.704038E-01	-3.870963E-03	6.116900E+02
-3.704115E-01	-3.871040E-03	6.121500E+02
-3.703884E-01	-3.871040E-03	6.125900E+02
-3.703884E-01	-3.870963E-03	6.130400E+02
-3.703884E-01	-3.870733E-03	6.134700E+02
-3.704038E-01	-3.870426E-03	6.139200E+02
-3.703961E-01	-3.870272E-03	6.143600E+02
-3.703961E-01	-3.870349E-03	6.148000E+02
-3.703961E-01	-3.870195E-03	6.152500E+02
-3.703961E-01	-3.870042E-03	6.156900E+02
-3.703808E-01	-3.870119E-03	6.161400E+02
-3.703884E-01	-3.869888E-03	6.165700E+02
-3.703884E-01	-3.869812E-03	6.170200E+02
-3.703961E-01	-3.869658E-03	6.174600E+02
-3.703961E-01	-3.869504E-03	6.179100E+02
-3.704038E-01	-3.869581E-03	6.183500E+02
-3.703884E-01	-3.869428E-03	6.187900E+02
-3.703654E-01	-3.869274E-03	6.196700E+02
-3.703731E-01	-3.868967E-03	6.201500E+02
-3.703884E-01	-3.868891E-03	6.205900E+02
-3.703884E-01	-3.868584E-03	6.210400E+02
-3.703961E-01	-3.868660E-03	6.214800E+02
-3.703808E-01	-3.868814E-03	6.219400E+02
-3.703731E-01	-3.868584E-03	6.223700E+02
-3.703808E-01	-3.868507E-03	6.228100E+02
-3.703808E-01	-3.868277E-03	6.232600E+02
-3.703884E-01	-3.868277E-03	6.237000E+02
-3.703884E-01	-3.868277E-03	6.241500E+02
-3.703884E-01	-3.868200E-03	6.245900E+02
-3.704038E-01	-3.868123E-03	6.250400E+02
-3.703808E-01	-3.868200E-03	6.254700E+02
-3.703808E-01	-3.868046E-03	6.259200E+02
-3.703731E-01	-3.867739E-03	6.263600E+02
-3.703731E-01	-3.867356E-03	6.268000E+02
-3.703808E-01	-3.867279E-03	6.272500E+02
-3.703884E-01	-3.867432E-03	6.276900E+02
-3.703884E-01	-3.867126E-03	6.281400E+02
-3.703884E-01	-3.867202E-03	6.285800E+02
-3.703961E-01	-3.867202E-03	6.290200E+02
-3.703731E-01	-3.866742E-03	6.299100E+02
-3.703808E-01	-3.866819E-03	6.303500E+02
-3.703731E-01	-3.866588E-03	6.307900E+02
-3.703808E-01	-3.866742E-03	6.312400E+02
-3.703884E-01	-3.866511E-03	6.316700E+02
-3.703884E-01	-3.866435E-03	6.321200E+02
-3.703884E-01	-3.866358E-03	6.325600E+02
-3.703961E-01	-3.866358E-03	6.330100E+02
-3.703808E-01	-3.866435E-03	6.334500E+02
-3.703731E-01	-3.866435E-03	6.339000E+02
-3.703808E-01	-3.866435E-03	6.343400E+02
-3.703731E-01	-3.866128E-03	6.347700E+02
-3.703808E-01	-3.866051E-03	6.352200E+02
-3.703808E-01	-3.866051E-03	6.356600E+02
-3.703884E-01	-3.865898E-03	6.361100E+02
-3.703961E-01	-3.865667E-03	6.365500E+02
-3.703884E-01	-3.865667E-03	6.370000E+02
-3.703884E-01	-3.865744E-03	6.374400E+02
-3.703961E-01	-3.865514E-03	6.378700E+02
-3.703961E-01	-3.865591E-03	6.383200E+02
-3.703884E-01	-3.866205E-03	6.387600E+02
-3.703884E-01	-3.865898E-03	6.396400E+02
-3.703884E-01	-3.865898E-03	6.400900E+02
-3.703808E-01	-3.865821E-03	6.405300E+02
-3.703961E-01	-3.865591E-03	6.409800E+02
-3.703961E-01	-3.865514E-03	6.414200E+02
-3.703961E-01	-3.865361E-03	6.418500E+02
-3.703961E-01	-3.865284E-03	6.423000E+02
-3.704038E-01	-3.865130E-03	6.427400E+02
-3.703961E-01	-3.864900E-03	6.431900E+02
-3.703884E-01	-3.864593E-03	6.436300E+02
-3.703884E-01	-3.864670E-03	6.440700E+02
-3.703808E-01	-3.864517E-03	6.445200E+02
-3.703884E-01	-3.864440E-03	6.449700E+02
-3.703884E-01	-3.864517E-03	6.454000E+02
-3.703961E-01	-3.864363E-03	6.458400E+02
-3.703961E-01	-3.864286E-03	6.462900E+02
-3.703961E-01	-3.864363E-03	6.467300E+02
-3.703884E-01	-3.864286E-03	6.471800E+02
-3.703884E-01	-3.864209E-03	6.476200E+02
-3.703884E-01	-3.863902E-03	6.480700E+02
-3.703884E-01	-3.863902E-03	6.485000E+02
-3.703884E-01	-3.864133E-03	6.489500E+02
-3.703808E-01	-3.863902E-03	6.498300E+02
-3.703884E-01	-3.863979E-03	6.502900E+02
-3.703731E-01	-3.863979E-03	6.507200E+02
-3.703808E-01	-3.863749E-03	6.511700E+02
-3.703808E-01	-3.863672E-03	6.516100E+02
-3.703884E-01	-3.863595E-03	6.520600E+02
-3.703884E-01	-3.863365E-03	6.525000E+02
-3.703884E-01	-3.863288E-03	6.529500E+02
-3.703808E-01	-3.863212E-03	6.533800E+02
-3.703808E-01	-3.863135E-03	6.538200E+02
-3.703808E-01	-3.863365E-03	6.542700E+02
-3.703808E-01	-3.863135E-03	6.547100E+02
-3.703884E-01	-3.863135E-03	6.551600E+02
-3.703884E-01	-3.863442E-03	6.556000E+02
-3.703884E-01	-3.863212E-03	6.560500E+02
-3.703808E-01	-3.862751E-03	6.564900E+02
-3.703808E-01	-3.862905E-03	6.569400E+02
-3.703808E-01	-3.862674E-03	6.573800E+02
-3.703884E-01	-3.862521E-03	6.578100E+02
-3.703884E-01	-3.862444E-03	6.582600E+02
-3.703961E-01	-3.862291E-03	6.587000E+02
-3.703884E-01	-3.862060E-03	6.595900E+02
-3.703884E-01	-3.861907E-03	6.600500E+02
-3.703884E-01	-3.861907E-03	6.604800E+02
-3.703884E-01	-3.861907E-03	6.609300E+02
-3.703961E-01	-3.861830E-03	6.613700E+02
-3.703961E-01	-3.861984E-03	6.618000E+02
-3.703884E-01	-3.861677E-03	6.622500E+02
-3.703884E-01	-3.861447E-03	6.626900E+02
-3.703884E-01	-3.861293E-03	6.631400E+02
-3.703884E-01	-3.861063E-03	6.635800E+02
-3.703961E-01	-3.860756E-03	6.640300E+02
-3.703961E-01	-3.860909E-03	6.644700E+02
-3.703961E-01	-3.860986E-03	6.649200E+02
-3.703961E-01	-3.861063E-03	6.653600E+02
-3.703884E-01	-3.860832E-03	6.658000E+02
-3.703884E-01	-3.860756E-03	6.662500E+02
-3.703884E-01	-3.860526E-03	6.666800E+02
-3.703884E-01	-3.860679E-03	6.671300E+02
-3.703884E-01	-3.860295E-03	6.675700E+02
-3.703961E-01	-3.860142E-03	6.680200E+02
-3.703961E-01	-3.860065E-03	6.684500E+02
-3.703961E-01	-3.859451E-03	6.689100E+02
-3.703808E-01	-3.859297E-03	6.697700E+02
-3.703808E-01	-3.859297E-03	6.702200E+02
-3.703884E-01	-3.859221E-03	6.706600E+02
-3.703961E-01	-3.858991E-03	6.711100E+02
-3.703961E-01	-3.858914E-03	6.715500E+02
-3.703884E-01	-3.858991E-03	6.720000E+02
-3.703961E-01	-3.858837E-03	6.724300E+02
-3.703808E-01	-3.858453E-03	6.728700E+02
-3.703808E-01	-3.858453E-03	6.733200E+02
-3.703884E-01	-3.858300E-03	6.737600E+02
-3.703808E-01	-3.858070E-03	6.742100E+02
-3.703884E-01	-3.857916E-03	6.746500E+02
-3.703961E-01	-3.858070E-03	6.751000E+02
-3.703884E-01	-3.857916E-03	6.755300E+02
-3.703884E-01	-3.857839E-03	6.759800E+02
-3.703884E-01	-3.857763E-03	6.764200E+02
-3.703884E-01	-3.857685E-03	6.768600E+02
-3.703808E-01	-3.857302E-03	6.773100E+02
-3.703884E-01	-3.857225E-03	6.777500E+02
-3.703808E-01	-3.857148E-03	6.782000E+02
-3.703884E-01	-3.856918E-03	6.786300E+02
-3.703884E-01	-3.856688E-03	6.790800E+02
-3.703884E-01	-3.856381E-03	6.799600E+02
-3.703961E-01	-3.856304E-03	6.804000E+02
-3.703884E-01	-3.856074E-03	6.808400E+02
-3.703808E-01	-3.855920E-03	6.812900E+02
-3.703808E-01	-3.855844E-03	6.817300E+02
-3.703884E-01	-3.855844E-03	6.821700E+02
-3.703808E-01	-3.855767E-03	6.826100E+02
-3.703884E-01	-3.855767E-03	6.830600E+02
-3.703961E-01	-3.855767E-03	6.835000E+02
-3.703961E-01	-3.855613E-03	6.839500E+02
-3.703884E-01	-3.855537E-03	6.843900E+02
-3.703961E-01	-3.855613E-03	6.848200E+02
-3.703961E-01	-3.855230E-03	6.852700E+02
-3.703808E-01	-3.855076E-03	6.857100E+02
-3.703808E-01	-3.854999E-03	6.861600E+02
-3.703884E-01	-3.855076E-03	6.866000E+02
-3.703884E-01	-3.855076E-03	6.870500E+02
-3.703884E-01	-3.854846E-03	6.874900E+02
-3.703884E-01	-3.854539E-03	6.879300E+02
-3.703961E-01	-3.854616E-03	6.883700E+02
-3.703961E-01	-3.854539E-03	6.888100E+02
-3.703961E-01	-3.854616E-03	6.896900E+02
-3.703961E-01	-3.854616E-03	6.901400E+02
-3.703884E-01	-3.854386E-03	6.905700E+02
-3.703808E-01	-3.854309E-03	6.910300E+02
-3.703884E-01	-3.854386E-03	6.914600E+02
-3.703884E-01	-3.854386E-03	6.919100E+02
-3.703884E-01	-3.854309E-03	6.923500E+02
-3.703884E-01	-3.854386E-03	6.927900E+02
-3.703961E-01	-3.853925E-03	6.932400E+02
-3.703961E-01	-3.853848E-03	6.936800E+02
-3.703884E-01	-3.853695E-03	6.941300E+02
-3.703961E-01	-3.853618E-03	6.945600E+02
-3.703808E-01	-3.853618E-03	6.950100E+02
-3.703808E-01	-3.853388E-03	6.954500E+02
-3.703884E-01	-3.853388E-03	6.959000E+02
-3.703884E-01	-3.853541E-03	6.963500E+02
-3.703884E-01	-3.853311E-03	6.967800E+02
-3.703884E-01	-3.853234E-03	6.972300E+02
-3.703884E-01	-3.853234E-03	6.976700E+02
-3.703884E-01	-3.853081E-03	6.981200E+02
-3.703884E-01	-3.852928E-03	6.985600E+02
-3.703884E-01	-3.853618E-03	6.990100E+02
-3.703884E-01	-3.853311E-03	6.999200E+02
-3.703961E-01	-3.853235E-03	7.003600E+02
-3.703884E-01	-3.853235E-03	7.008000E+02
-3.704038E-01	-3.853235E-03	7.012500E+02
-3.704038E-01	-3.852928E-03	7.016900E+02
-3.704038E-01	-3.852851E-03	7.021500E+02
-3.703961E-01	-3.852851E-03	7.025800E+02
-3.703961E-01	-3.852697E-03	7.030300E+02
-3.703884E-01	-3.852697E-03	7.034700E+02
-3.703961E-01	-3.852621E-03	7.039200E+02
-3.703961E-01	-3.852697E-03	7.043600E+02
-3.703961E-01	-3.852390E-03	7.047900E+02
-3.704038E-01	-3.852390E-03	7.052400E+02
-3.704038E-01	-3.852390E-03	7.056800E+02
-3.704038E-01	-3.852314E-03	7.061300E+02
-3.704038E-01	-3.852160E-03	7.065700E+02
-3.704038E-01	-3.852160E-03	7.070200E+02
-3.703884E-01	-3.852084E-03	7.074600E+02
-3.703961E-01	-3.851930E-03	7.079100E+02
-3.703961E-01	-3.851930E-03	7.083500E+02
-3.703884E-01	-3.851009E-03	7.087900E+02
-3.703884E-01	-3.850932E-03	7.096700E+02
-3.703961E-01	-3.850778E-03	7.101200E+02
-3.703884E-01	-3.850625E-03	7.105600E+02
-3.703961E-01	-3.850548E-03	7.110100E+02
-3.703884E-01	-3.850395E-03	7.114500E+02
-3.703961E-01	-3.850472E-03	7.119100E+02
-3.703961E-01	-3.850318E-03	7.123400E+02
-3.703884E-01	-3.850395E-03	7.127800E+02
-3.703884E-01	-3.850395E-03	7.132300E+02
-3.703884E-01	-3.850241E-03	7.136600E+02
-3.703884E-01	-3.850318E-03	7.141100E+02
-3.703884E-01	-3.850241E-03	7.145500E+02
-3.703961E-01	-3.850241E-03	7.150000E+02
-3.703884E-01	-3.850165E-03	7.154400E+02
-3.703884E-01	-3.849857E-03	7.158900E+02
-3.703961E-01	-3.849781E-03	7.163200E+02
-3.703961E-01	-3.849704E-03	7.167600E+02
-3.703884E-01	-3.849474E-03	7.172100E+02
-3.703961E-01	-3.849244E-03	7.176500E+02
-3.704038E-01	-3.849167E-03	7.181000E+02
-3.703884E-01	-3.849090E-03	7.185400E+02
-3.703961E-01	-3.848630E-03	7.189900E+02
-3.703961E-01	-3.848553E-03	7.198600E+02
-3.703884E-01	-3.848476E-03	7.203100E+02
-3.703961E-01	-3.848630E-03	7.207500E+02
-3.703884E-01	-3.848630E-03	7.212000E+02
-3.703961E-01	-3.848476E-03	7.216400E+02
-3.703961E-01	-3.848092E-03	7.220900E+02
-3.703884E-01	-3.848092E-03	7.225300E+02
-3.703884E-01	-3.848246E-03	7.229800E+02
-3.703884E-01	-3.848092E-03	7.234100E+02
-3.703884E-01	-3.847939E-03	7.238500E+02
-3.703808E-01	-3.847862E-03	7.243000E+02
-3.703808E-01	-3.847862E-03	7.247400E+02
-3.703884E-01	-3.847939E-03	7.251900E+02
-3.703884E-01	-3.847785E-03	7.256200E+02
-3.703884E-01	-3.847862E-03	7.260700E+02
-3.703884E-01	-3.847785E-03	7.265200E+02
-3.703884E-01	-3.847555E-03	7.269700E+02
-3.703808E-01	-3.847402E-03	7.274100E+02
-3.703884E-01	-3.847325E-03	7.278500E+02
-3.703961E-01	-3.847248E-03	7.283000E+02
-3.703808E-01	-3.847095E-03	7.287300E+02
-3.703884E-01	-3.846941E-03	7.296200E+02
-3.703808E-01	-3.846788E-03	7.300700E+02
-3.703808E-01	-3.846634E-03	7.305100E+02
-3.703731E-01	-3.846404E-03	7.309600E+02
-3.703731E-01	-3.846404E-03	7.314000E+02
-3.703808E-01	-3.846327E-03	7.318300E+02
-3.703808E-01	-3.846327E-03	7.322800E+02
-3.703808E-01	-3.846174E-03	7.327200E+02
-3.703808E-01	-3.845867E-03	7.331700E+02
-3.703808E-01	-3.845790E-03	7.336100E+02
-3.703731E-01	-3.845636E-03	7.340600E+02
-3.703808E-01	-3.845636E-03	7.344900E+02
-3.703808E-01	-3.845560E-03	7.349400E+02
-3.703808E-01	-3.845560E-03	7.353800E+02
-3.703808E-01	-3.845329E-03	7.358200E+02
-3.703884E-01	-3.845253E-03	7.362700E+02
-3.703808E-01	-3.845023E-03	7.367100E+02
-3.703884E-01	-3.844946E-03	7.371600E+02
-3.703884E-01	-3.844639E-03	7.376000E+02
-3.703808E-01	-3.844409E-03	7.380400E+02
-3.703731E-01	-3.844485E-03	7.384800E+02
-3.703884E-01	-3.845330E-03	7.389300E+02
-3.703808E-01	-3.845407E-03	7.398100E+02
-3.703884E-01	-3.845176E-03	7.402600E+02
-3.703884E-01	-3.845176E-03	7.407000E+02
-3.703961E-01	-3.845023E-03	7.411500E+02
-3.703884E-01	-3.844869E-03	7.415900E+02
-3.703884E-01	-3.844869E-03	7.420400E+02
-3.703961E-01	-3.844869E-03	7.424700E+02
-3.704038E-01	-3.844792E-03	7.429200E+02
-3.703961E-01	-3.844716E-03	7.433600E+02
-3.704038E-01	-3.844716E-03	7.438000E+02
-3.703961E-01	-3.844563E-03	7.442500E+02
-3.703961E-01	-3.844409E-03	7.446900E+02
-3.703961E-01	-3.844256E-03	7.451400E+02
-3.703884E-01	-3.844102E-03	7.455800E+02
-3.703884E-01	-3.844102E-03	7.460200E+02
-3.703884E-01	-3.844025E-03	7.464600E+02
-3.703884E-01	-3.844102E-03	7.469200E+02
-3.703884E-01	-3.844025E-03	7.473600E+02
-3.703884E-01	-3.843948E-03	7.477900E+02
-3.703884E-01	-3.843948E-03	7.482400E+02
-3.703884E-01	-3.843488E-03	7.486800E+02
-3.703808E-01	-3.843181E-03	7.495600E+02
-3.703884E-01	-3.843027E-03	7.500100E+02
-3.703961E-01	-3.842951E-03	7.504500E+02
-3.703961E-01	-3.842873E-03	7.509100E+02
-3.703961E-01	-3.842797E-03	7.513400E+02
-3.703961E-01	-3.842644E-03	7.517800E+02
-3.703961E-01	-3.842644E-03	7.522300E+02
-3.703884E-01	-3.842260E-03	7.526600E+02
-3.703884E-01	-3.842183E-03	7.531100E+02
-3.703884E-01	-3.842337E-03	7.535500E+02
-3.703961E-01	-3.842337E-03	7.540000E+02
-3.703884E-01	-3.842183E-03	7.544400E+02
-3.703884E-01	-3.841953E-03	7.548900E+02
-3.703961E-01	-3.842107E-03	7.553200E+02
-3.703961E-01	-3.841953E-03	7.557700E+02
-3.703961E-01	-3.841799E-03	7.562200E+02
-3.703884E-01	-3.841876E-03	7.566600E+02
-3.703808E-01	-3.841953E-03	7.571100E+02
-3.703961E-01	-3.842029E-03	7.575400E+02
-3.703961E-01	-3.841799E-03	7.579900E+02
-3.703961E-01	-3.841722E-03	7.584300E+02
-3.703808E-01	-3.841108E-03	7.588700E+02
-3.703884E-01	-3.841108E-03	7.597500E+02
-3.703884E-01	-3.841032E-03	7.602000E+02
-3.703808E-01	-3.840878E-03	7.606400E+02
-3.703731E-01	-3.840801E-03	7.610800E+02
-3.703808E-01	-3.840725E-03	7.615200E+02
-3.703808E-01	-3.840801E-03	7.619700E+02
-3.703808E-01	-3.840572E-03	7.624100E+02
-3.703808E-01	-3.840648E-03	7.628500E+02
-3.703884E-01	-3.840494E-03	7.633000E+02
-3.703961E-01	-3.840264E-03	7.637400E+02
-3.703884E-01	-3.840187E-03	7.641800E+02
-3.703884E-01	-3.839880E-03	7.646200E+02
-3.703884E-01	-3.839957E-03	7.650700E+02
-3.703808E-01	-3.839880E-03	7.655100E+02
-3.703808E-01	-3.839880E-03	7.659600E+02
-3.703884E-01	-3.839804E-03	7.664000E+02
-3.703884E-01	-3.839804E-03	7.668300E+02
-3.703808E-01	-3.839497E-03	7.672800E+02
-3.703808E-01	-3.839420E-03	7.677200E+02
-3.703884E-01	-3.839420E-03	7.681700E+02
-3.703884E-01	-3.839267E-03	7.686100E+02
-3.703884E-01	-3.839190E-03	7.690600E+02
-3.703808E-01	-3.838653E-03	7.699400E+02
-3.703731E-01	-3.838576E-03	7.703800E+02
-3.703808E-01	-3.838653E-03	7.708200E+02
-3.703808E-01	-3.838806E-03	7.712700E+02
-3.703808E-01	-3.838576E-03	7.717100E+02
-3.703808E-01	-3.838269E-03	7.721600E+02
-3.703808E-01	-3.838499E-03	7.726000E+02
-3.703808E-01	-3.838269E-03	7.730400E+02
-3.703731E-01	-3.838269E-03	7.734800E+02
-3.703808E-01	-3.838269E-03	7.739300E+02
-3.703884E-01	-3.838039E-03	7.743700E+02
-3.703884E-01	-3.838269E-03	7.748100E+02
-3.703884E-01	-3.837962E-03	7.752600E+02
-3.703884E-01	-3.837732E-03	7.757000E+02
-3.703808E-01	-3.837732E-03	7.761500E+02
-3.703808E-01	-3.837732E-03	7.765800E+02
-3.703808E-01	-3.837732E-03	7.770300E+02
-3.703808E-01	-3.837732E-03	7.774700E+02
-3.703808E-01	-3.837578E-03	7.779200E+02
-3.703731E-01	-3.837502E-03	7.783600E+02
-3.703884E-01	-3.837271E-03	7.788000E+02
-3.703884E-01	-3.837271E-03	7.796800E+02
-3.703808E-01	-3.837118E-03	7.801600E+02
-3.703808E-01	-3.836964E-03	7.806000E+02
-3.703808E-01	-3.837271E-03	7.810400E+02
-3.703808E-01	-3.837118E-03	7.814800E+02
-3.703884E-01	-3.837118E-03	7.819300E+02
-3.703808E-01	-3.836887E-03	7.823700E+02
-3.703808E-01	-3.836964E-03	7.828100E+02
-3.703884E-01	-3.836887E-03	7.832600E+02
-3.703884E-01	-3.836734E-03	7.837000E+02
-3.703884E-01	-3.836581E-03	7.841500E+02
-3.703808E-01	-3.836350E-03	7.845900E+02
-3.703808E-01	-3.836427E-03	7.850400E+02
-3.703808E-01	-3.836581E-03	7.854700E+02
-3.703808E-01	-3.836581E-03	7.859200E+02
-3.703808E-01	-3.836503E-03	7.863600E+02
-3.703808E-01	-3.836350E-03	7.868000E+02
-3.703884E-01	-3.836274E-03	7.872500E+02
-3.703884E-01	-3.836043E-03	7.876800E+02
-3.703808E-01	-3.835967E-03	7.881400E+02
-3.703808E-01	-3.835659E-03	7.885700E+02
-3.703884E-01	-3.836427E-03	7.890300E+02
-3.703884E-01	-3.836274E-03	7.899200E+02
-3.703884E-01	-3.835967E-03	7.903600E+02
-3.703884E-01	-3.835967E-03	7.907900E+02
-3.703961E-01	-3.836043E-03	7.912400E+02
-3.703884E-01	-3.835813E-03	7.916700E+02
-3.703961E-01	-3.835813E-03	7.921200E+02
-3.703884E-01	-3.835890E-03	7.925600E+02
-3.703961E-01	-3.835813E-03	7.930100E+02
-3.703961E-01	-3.835660E-03	7.934500E+02
-3.703961E-01	-3.835660E-03	7.939100E+02
-3.703961E-01	-3.835583E-03	7.943400E+02
-3.703884E-01	-3.835660E-03	7.947900E+02
-3.703884E-01	-3.835353E-03	7.952300E+02
-3.703961E-01	-3.835353E-03	7.956700E+02
-3.703884E-01	-3.835429E-03	7.961200E+02
-3.703884E-01	-3.835199E-03	7.965600E+02
-3.703961E-01	-3.835122E-03	7.970100E+02
-3.704038E-01	-3.835046E-03	7.974500E+02
-3.703961E-01	-3.834969E-03	7.978900E+02
-3.703884E-01	-3.834662E-03	7.983300E+02
-3.703808E-01	-3.834432E-03	7.987700E+02
-3.703808E-01	-3.834125E-03	7.996500E+02
-3.703884E-01	-3.833971E-03	8.001000E+02
-3.703884E-01	-3.833971E-03	8.005400E+02
-3.703961E-01	-3.833894E-03	8.009900E+02
-3.703884E-01	-3.834048E-03	8.014200E+02
-3.703808E-01	-3.833818E-03	8.018600E+02
-3.703808E-01	-3.833818E-03	8.023100E+02
-3.703884E-01	-3.833741E-03	8.027500E+02
-3.703884E-01	-3.833664E-03	8.032000E+02
-3.703884E-01	-3.833434E-03	8.036400E+02
-3.703884E-01	-3.833280E-03	8.040900E+02
-3.703884E-01	-3.833357E-03	8.045200E+02
-3.703808E-01	-3.833280E-03	8.049700E+02
-3.703808E-01	-3.833357E-03	8.054100E+02
-3.703808E-01	-3.833357E-03	8.058500E+02
-3.703884E-01	-3.833204E-03	8.063000E+02
-3.703808E-01	-3.833204E-03	8.067400E+02
-3.703884E-01	-3.833357E-03	8.071900E+02
-3.703884E-01	-3.832973E-03	8.076200E+02
-3.703731E-01	-3.832743E-03	8.080700E+02
-3.703808E-01	-3.832820E-03	8.085200E+02
-3.703884E-01	-3.832513E-03	8.089700E+02
-3.703961E-01	-3.832283E-03	8.098400E+02
-3.703961E-01	-3.832360E-03	8.102800E+02
-3.703808E-01	-3.832129E-03	8.107200E+02
-3.703884E-01	-3.832206E-03	8.111700E+02
-3.703884E-01	-3.831899E-03	8.116100E+02
-3.703884E-01	-3.831745E-03	8.120600E+02
-3.703961E-01	-3.831745E-03	8.125000E+02
-3.703961E-01	-3.831592E-03	8.129500E+02
-3.703961E-01	-3.831439E-03	8.133900E+02
-3.703884E-01	-3.831439E-03	8.138300E+02
-3.703884E-01	-3.831361E-03	8.142800E+02
-3.703961E-01	-3.831361E-03	8.147200E+02
-3.703884E-01	-3.831208E-03	8.151700E+02
-3.703961E-01	-3.831285E-03	8.156100E+02
-3.703961E-01	-3.831055E-03	8.160600E+02
-3.703884E-01	-3.830978E-03	8.165000E+02
-3.703884E-01	-3.831055E-03	8.169400E+02
-3.703884E-01	-3.830978E-03	8.173800E+02
-3.703961E-01	-3.830671E-03	8.178200E+02
-3.703961E-01	-3.830671E-03	8.182700E+02
-3.704038E-01	-3.830364E-03	8.187100E+02
-3.703884E-01	-3.830364E-03	8.196000E+02
-3.703884E-01	-3.830287E-03	8.200400E+02
-3.703884E-01	-3.830134E-03	8.204800E+02
-3.703884E-01	-3.829980E-03	8.209300E+02
-3.703884E-01	-3.829750E-03	8.213700E+02
-3.703961E-01	-3.829750E-03	8.218100E+02
-3.703961E-01	-3.829673E-03	8.222600E+02
-3.703884E-01	-3.829597E-03	8.227000E+02
-3.703884E-01	-3.829443E-03	8.231400E+02
-3.703884E-01	-3.829520E-03	8.235800E+02
-3.703884E-01	-3.829366E-03	8.240300E+02
-3.703961E-01	-3.829289E-03	8.244700E+02
-3.703884E-01	-3.829059E-03	8.249300E+02
-3.703884E-01	-3.829289E-03	8.253700E+02
-3.703961E-01	-3.829289E-03	8.258000E+02
-3.703961E-01	-3.829136E-03	8.262500E+02
-3.704038E-01	-3.829059E-03	8.266900E+02
-3.703884E-01	-3.829136E-03	8.271400E+02
-3.703884E-01	-3.828983E-03	8.275800E+02
-3.703884E-01	-3.828675E-03	8.280300E+02
-3.703884E-01	-3.828829E-03	8.284700E+02
-3.703808E-01	-3.828906E-03	8.289200E+02
-3.703808E-01	-3.828829E-03	8.297900E+02
-3.703884E-01	-3.828752E-03	8.302400E+02
-3.703884E-01	-3.828675E-03	8.306800E+02
-3.703961E-01	-3.828752E-03	8.311300E+02
-3.703808E-01	-3.828522E-03	8.315700E+02
-3.703808E-01	-3.828292E-03	8.320200E+02
-3.703808E-01	-3.828215E-03	8.324500E+02
-3.703808E-01	-3.828062E-03	8.329000E+02
-3.703808E-01	-3.828062E-03	8.333400E+02
-3.703808E-01	-3.828062E-03	8.337800E+02
-3.703808E-01	-3.827678E-03	8.342300E+02
-3.703808E-01	-3.827678E-03	8.346700E+02
-3.703808E-01	-3.827678E-03	8.351200E+02
-3.703884E-01	-3.827678E-03	8.355600E+02
-3.703884E-01	-3.827525E-03	8.360000E+02
-3.703884E-01	-3.827678E-03	8.364400E+02
-3.703808E-01	-3.827371E-03	8.368900E+02
-3.703731E-01	-3.827140E-03	8.373300E+02
-3.703808E-01	-3.827218E-03	8.377700E+02
-3.703808E-01	-3.827371E-03	8.382200E+02
-3.703808E-01	-3.827294E-03	8.386600E+02
-3.703808E-01	-3.827985E-03	8.391100E+02
-3.703808E-01	-3.827831E-03	8.400000E+02
-3.703808E-01	-3.827831E-03	8.404300E+02
-3.703808E-01	-3.827831E-03	8.408700E+02
-3.703884E-01	-3.827678E-03	8.413200E+02
-3.703961E-01	-3.827601E-03	8.417600E+02
-3.703884E-01	-3.827601E-03	8.422100E+02
-3.703884E-01	-3.827601E-03	8.426500E+02
-3.703808E-01	-3.827371E-03	8.430900E+02
-3.703808E-01	-3.827218E-03	8.435300E+02
-3.703808E-01	-3.827141E-03	8.439800E+02
-3.703808E-01	-3.827141E-03	8.444200E+02
-3.703808E-01	-3.826987E-03	8.448600E+02
-3.703808E-01	-3.826680E-03	8.453100E+02
-3.703808E-01	-3.826527E-03	8.457500E+02
-3.703808E-01	-3.826450E-03	8.462000E+02
-3.703731E-01	-3.826297E-03	8.466300E+02
-3.703808E-01	-3.826220E-03	8.470800E+02
-3.703808E-01	-3.826220E-03	8.475200E+02
-3.703884E-01	-3.826143E-03	8.479700E+02
-3.703808E-01	-3.825913E-03	8.484200E+02
-3.703884E-01	-3.825836E-03	8.488500E+02
-3.703884E-01	-3.825606E-03	8.497400E+02
-3.703961E-01	-3.825606E-03	8.501900E+02
-3.703884E-01	-3.825452E-03	8.506300E+02
-3.703884E-01	-3.825299E-03	8.510800E+02
-3.703884E-01	-3.825146E-03	8.515200E+02
-3.703884E-01	-3.825069E-03	8.519700E+02
-3.703884E-01	-3.825069E-03	8.524100E+02
-3.703884E-01	-3.825069E-03	8.528500E+02
-3.703808E-01	-3.825222E-03	8.533000E+02
-3.703884E-01	-3.824992E-03	8.537300E+02
-3.703808E-01	-3.824839E-03	8.541800E+02
-3.703884E-01	-3.824685E-03	8.546200E+02
-3.703961E-01	-3.824532E-03	8.550700E+02
-3.703961E-01	-3.824608E-03	8.555100E+02
-3.703961E-01	-3.824301E-03	8.559500E+02
-3.703961E-01	-3.824224E-03	8.563900E+02
-3.704038E-01	-3.824455E-03	8.568300E+02
-3.703961E-01	-3.824224E-03	8.572800E+02
-3.703884E-01	-3.824224E-03	8.577200E+02
-3.703961E-01	-3.824071E-03	8.581700E+02
-3.703884E-01	-3.823917E-03	8.586100E+02
-3.703884E-01	-3.822997E-03	8.590600E+02
-3.703884E-01	-3.823073E-03	8.599700E+02
-3.703884E-01	-3.822997E-03	8.604100E+02
-3.703884E-01	-3.822920E-03	8.608400E+02
-3.703808E-01	-3.822843E-03	8.612900E+02
-3.703808E-01	-3.822689E-03	8.617300E+02
-3.703884E-01	-3.822689E-03	8.621800E+02
-3.703808E-01	-3.822459E-03	8.626200E+02
-3.703884E-01	-3.822152E-03	8.630700E+02
-3.703884E-01	-3.822076E-03	8.635100E+02
-3.703808E-01	-3.822076E-03	8.639700E+02
-3.703961E-01	-3.821999E-03	8.644000E+02
-3.703961E-01	-3.821845E-03	8.648400E+02
-3.703961E-01	-3.821845E-03	8.652900E+02
-3.703884E-01	-3.821845E-03	8.657300E+02
-3.703884E-01	-3.821845E-03	8.661800E+02
-3.703961E-01	-3.821845E-03	8.666200E+02
-3.703808E-01	-3.821769E-03	8.670700E+02
-3.703884E-01	-3.821615E-03	8.675100E+02
-3.703884E-01	-3.821692E-03	8.679600E+02
-3.703884E-01	-3.821615E-03	8.684000E+02
-3.703884E-01	-3.821615E-03	8.688300E+02
-3.703884E-01	-3.821385E-03	8.697100E+02
-3.703808E-01	-3.821154E-03	8.701600E+02
-3.703808E-01	-3.821231E-03	8.706000E+02
-3.703808E-01	-3.821001E-03	8.710500E+02
-3.703808E-01	-3.820847E-03	8.714800E+02
-3.703808E-01	-3.821078E-03	8.719400E+02
-3.703808E-01	-3.821001E-03	8.723800E+02
-3.703808E-01	-3.820847E-03	8.728200E+02
-3.703884E-01	-3.820847E-03	8.732700E+02
-3.703884E-01	-3.820540E-03	8.737000E+02
-3.703884E-01	-3.820540E-03	8.741500E+02
-3.703961E-01	-3.820540E-03	8.745900E+02
-3.703961E-01	-3.820694E-03	8.750400E+02
-3.703884E-01	-3.820387E-03	8.754800E+02
-3.703884E-01	-3.820387E-03	8.759300E+02
-3.703884E-01	-3.820233E-03	8.763600E+02
-3.703884E-01	-3.820233E-03	8.768000E+02
-3.703808E-01	-3.820080E-03	8.772500E+02
-3.703808E-01	-3.819927E-03	8.776800E+02
-3.703731E-01	-3.819850E-03	8.781300E+02
-3.703808E-01	-3.819927E-03	8.785700E+02
-3.703731E-01	-3.819696E-03	8.790200E+02
-3.703808E-01	-3.819696E-03	8.799000E+02
-3.703884E-01	-3.819696E-03	8.803400E+02
-3.703884E-01	-3.819620E-03	8.807800E+02
-3.703808E-01	-3.819543E-03	8.812300E+02
-3.703884E-01	-3.819466E-03	8.816700E+02
-3.703808E-01	-3.819312E-03	8.821200E+02
-3.703731E-01	-3.819312E-03	8.825600E+02
-3.703654E-01	-3.819159E-03	8.830000E+02
-3.703731E-01	-3.819006E-03	8.834400E+02
-3.703731E-01	-3.818929E-03	8.838900E+02
-3.703884E-01	-3.818852E-03	8.843300E+02
-3.703961E-01	-3.818929E-03	8.847700E+02
-3.703884E-01	-3.818852E-03	8.852200E+02
-3.703808E-01	-3.818775E-03	8.856600E+02
-3.703808E-01	-3.818622E-03	8.861000E+02
-3.703731E-01	-3.818392E-03	8.865400E+02
-3.703731E-01	-3.818392E-03	8.869900E+02
-3.703654E-01	-3.818162E-03	8.874300E+02
-3.703731E-01	-3.818008E-03	8.878700E+02
-3.703808E-01	-3.817854E-03	8.883200E+02
-3.703884E-01	-3.818008E-03	8.887600E+02
-3.703808E-01	-3.817778E-03	8.896400E+02
-3.703808E-01	-3.817778E-03	8.900900E+02
-3.703731E-01	-3.817471E-03	8.905300E+02
-3.703731E-01	-3.817317E-03	8.909800E+02
-3.703731E-01	-3.817163E-03	8.914200E+02
-3.703654E-01	-3.817087E-03	8.918600E+02
-3.703731E-01	-3.816857E-03	8.923100E+02
-3.703884E-01	-3.816934E-03	8.927500E+02
-3.703884E-01	-3.816934E-03	8.932000E+02
-3.703808E-01	-3.816780E-03	8.936300E+02
-3.703808E-01	-3.816627E-03	8.940800E+02
-3.703731E-01	-3.816396E-03	8.945200E+02
-3.703808E-01	-3.816550E-03	8.949700E+02
-3.703731E-01	-3.816550E-03	8.954100E+02
-3.703731E-01	-3.816243E-03	8.958500E+02
-3.703808E-01	-3.816089E-03	8.963000E+02
-3.703884E-01	-3.816089E-03	8.967300E+02
-3.703808E-01	-3.815936E-03	8.971900E+02
-3.703808E-01	-3.815552E-03	8.976300E+02
-3.703731E-01	-3.815399E-03	8.980800E+02
-3.703808E-01	-3.815322E-03	8.985200E+02
-3.703731E-01	-3.815859E-03	8.989700E+02
-3.703884E-01	-3.815782E-03	8.998400E+02
-3.703808E-01	-3.815629E-03	9.002900E+02
