CORRW ASCII
  CorrWare for Windows: Version 3.5f
  Potentiostatic	[-0.37 Ref,50 Hour][default]	bias_-370mV_6.cor
  Date: 11-05-2019    Time: 21:08:46
   
   
  Open Circuit Potential (V): 0.0032
  Begin Information:          Cell Information
    Surface Area:             1
    Density:                  0
    Weight:                   0
    Polarity:                 0
    PolarityI:                0
    Corrosion Unit Type:      0
    Reference Type:           0
    Reference Potential:      0
    User-Defined Potential:   0
    Stern-Geary:              26
  End Information:            Cell Information
  Begin Pstat:                1287
    Pstat Title:              Instrument #1
    Booster Type:             0
    Booster Name:             None
    Current Range:            0
    Current Limit:            0
    Current LimitType:        0
    Sweep Type:               0
    Use Error Beep:           1
    Auxilary Type:            0
    iR Comp. Type:            0
    iR Ohms:                  0
    iR Time:                  27
    iR Ratio:                 255
    LP Filter Type:           2
    Drift Correction:         1
    Null Correction:          0
    Pstat Bandwidth Type:     2
    Gstat Bandwidth Type:     2
    External Input:           0
    SafetyMinV:               0
    SafetyMaxV:               10
    SafetyMinI:               0
    SafetyMaxI:               4
    SafetyMinQ:               0
    SafetyMaxQ:               1000
    SafetyMinT:               0
    SafetyMaxT:               50
    SafetyChT:                0
    SafetyMinVUse:            0
    SafetyMaxVUse:            0
    SafetyMinIUse:            0
    SafetyMaxIUse:            0
    SafetyMinQUse:            0
    SafetyMaxQUse:            0
    SafetyMinTUse:            0
    SafetyMaxTUse:            0
  End Pstat:                  1287
  Begin Experiment:           Potentiostatic	[-0.37 Ref,50 Hour][default]	bias_-370mV_6.cor
    Data File:                Z:\191101_Amezawa\fr_XAS\DPB2\700C_100%O2\Electrochem\bias_-370mV_6.cor
    Data Append:              0
    Comment Lines:            0
    Potential:                -0.37
    Potential Type:           1
    Total Time:               50
    Time Units:               2
    Time Marker:              -1
    Measure Rate Type:        1
    Measure Rate #1:          2000
    Measure Rate #2:          10
    Measure Rate #3:          0.1
    Measure Rate #4:          2
    Use Threshold:            0
    Threshold I_Min:          -15
    Threshold I_Max:          15
    Threshold Delta:          5
    Threshold Time:           60
    Copy AuxV:                0
    Axes Type:                1
    Use Custom Pstat:         0
  End Experiment:             Potentiostatic	[-0.37 Ref,50 Hour][default]	bias_-370mV_6.cor
  Data Points:                647
  E(Volts)	I(A/cm2)	T(Seconds)
End Comments
-3.603778E-01	-1.981241E-03	0.000000E+00
-3.703578E-01	-2.864590E-03	8.900000E-01
-3.703578E-01	-3.074184E-03	1.340000E+00
-3.703501E-01	-3.207415E-03	1.770000E+00
-3.703424E-01	-3.297515E-03	2.230000E+00
-3.703424E-01	-3.354308E-03	2.670000E+00
-3.703347E-01	-3.392067E-03	3.120000E+00
-3.703347E-01	-3.416165E-03	3.560000E+00
-3.703347E-01	-3.432358E-03	4.010000E+00
-3.703347E-01	-3.442873E-03	4.440000E+00
-3.703347E-01	-3.450087E-03	4.890000E+00
-3.703424E-01	-3.454999E-03	5.330000E+00
-3.703347E-01	-3.458606E-03	5.770000E+00
-3.703347E-01	-3.461369E-03	6.220000E+00
-3.703347E-01	-3.463364E-03	6.660000E+00
-3.703347E-01	-3.465206E-03	7.110000E+00
-3.703347E-01	-3.466817E-03	7.550000E+00
-3.703347E-01	-3.468122E-03	7.990000E+00
-3.703347E-01	-3.469427E-03	8.430000E+00
-3.703347E-01	-3.469887E-03	8.870000E+00
-3.703270E-01	-3.472113E-03	9.750000E+00
-3.703270E-01	-3.473264E-03	1.020000E+01
-3.703347E-01	-3.474262E-03	1.064000E+01
-3.703270E-01	-3.475182E-03	1.109000E+01
-3.703347E-01	-3.476181E-03	1.152000E+01
-3.703347E-01	-3.477255E-03	1.198000E+01
-3.703347E-01	-3.478406E-03	1.242000E+01
-3.703424E-01	-3.479327E-03	1.286000E+01
-3.703578E-01	-3.480402E-03	1.331000E+01
-3.703654E-01	-3.481476E-03	1.374000E+01
-3.703578E-01	-3.482320E-03	1.419000E+01
-3.703654E-01	-3.483548E-03	1.463000E+01
-3.703654E-01	-3.484315E-03	1.508000E+01
-3.703654E-01	-3.485390E-03	1.552000E+01
-3.703654E-01	-3.486311E-03	1.596000E+01
-3.703654E-01	-3.487309E-03	1.640000E+01
-3.703578E-01	-3.488153E-03	1.684000E+01
-3.703578E-01	-3.489304E-03	1.729000E+01
-3.703578E-01	-3.490148E-03	1.774000E+01
-3.703578E-01	-3.490992E-03	1.819000E+01
-3.703501E-01	-3.491990E-03	1.862000E+01
-3.703501E-01	-3.492911E-03	1.907000E+01
-3.703347E-01	-3.494830E-03	1.995000E+01
-3.703347E-01	-3.495674E-03	2.039000E+01
-3.703347E-01	-3.496595E-03	2.083000E+01
-3.703424E-01	-3.497592E-03	2.128000E+01
-3.703424E-01	-3.498513E-03	2.172000E+01
-3.703424E-01	-3.499357E-03	2.217000E+01
-3.703347E-01	-3.500125E-03	2.261000E+01
-3.703347E-01	-3.500816E-03	2.306000E+01
-3.703424E-01	-3.501583E-03	2.349000E+01
-3.703424E-01	-3.502581E-03	2.394000E+01
-3.703424E-01	-3.503732E-03	2.438000E+01
-3.703654E-01	-3.504499E-03	2.482000E+01
-3.703731E-01	-3.505344E-03	2.527000E+01
-3.703808E-01	-3.506111E-03	2.570000E+01
-3.703808E-01	-3.507109E-03	2.615000E+01
-3.703808E-01	-3.508030E-03	2.659000E+01
-3.703808E-01	-3.508951E-03	2.704000E+01
-3.704115E-01	-3.510026E-03	2.748000E+01
-3.704345E-01	-3.510947E-03	2.793000E+01
-3.704345E-01	-3.511637E-03	2.837000E+01
-3.704345E-01	-3.513019E-03	2.880000E+01
-3.704268E-01	-3.514630E-03	2.969000E+01
-3.704038E-01	-3.515398E-03	3.014000E+01
-3.704038E-01	-3.516242E-03	3.058000E+01
-3.703961E-01	-3.517086E-03	3.103000E+01
-3.703808E-01	-3.518084E-03	3.147000E+01
-3.703731E-01	-3.518852E-03	3.192000E+01
-3.703654E-01	-3.519389E-03	3.236000E+01
-3.703654E-01	-3.520156E-03	3.279000E+01
-3.703578E-01	-3.521077E-03	3.324000E+01
-3.703578E-01	-3.521922E-03	3.368000E+01
-3.703654E-01	-3.522842E-03	3.413000E+01
-3.703654E-01	-3.523763E-03	3.457000E+01
-3.703884E-01	-3.524454E-03	3.502000E+01
-3.704115E-01	-3.525221E-03	3.545000E+01
-3.704115E-01	-3.526142E-03	3.590000E+01
-3.704038E-01	-3.526833E-03	3.634000E+01
-3.704038E-01	-3.527677E-03	3.677000E+01
-3.703808E-01	-3.528445E-03	3.723000E+01
-3.703731E-01	-3.529135E-03	3.767000E+01
-3.703654E-01	-3.529750E-03	3.812000E+01
-3.703731E-01	-3.530670E-03	3.855000E+01
-3.703808E-01	-3.530670E-03	3.900000E+01
-3.703731E-01	-3.532359E-03	3.987000E+01
-3.704038E-01	-3.533126E-03	4.032000E+01
-3.703808E-01	-3.533510E-03	4.076000E+01
-3.703731E-01	-3.534431E-03	4.121000E+01
-3.704038E-01	-3.535352E-03	4.165000E+01
-3.703884E-01	-3.536043E-03	4.210000E+01
-3.703731E-01	-3.536810E-03	4.253000E+01
-3.703731E-01	-3.537424E-03	4.298000E+01
-3.703808E-01	-3.538114E-03	4.342000E+01
-3.703731E-01	-3.538728E-03	4.386000E+01
-3.703808E-01	-3.539496E-03	4.431000E+01
-3.703808E-01	-3.539956E-03	4.475000E+01
-3.703884E-01	-3.540801E-03	4.520000E+01
-3.703961E-01	-3.541568E-03	4.563000E+01
-3.703808E-01	-3.542105E-03	4.608000E+01
-3.703578E-01	-3.542873E-03	4.652000E+01
-3.703501E-01	-3.543487E-03	4.698000E+01
-3.703731E-01	-3.544331E-03	4.742000E+01
-3.703808E-01	-3.545098E-03	4.785000E+01
-3.703808E-01	-3.545712E-03	4.830000E+01
-3.703501E-01	-3.547094E-03	4.874000E+01
-3.703731E-01	-3.548629E-03	4.963000E+01
-3.703731E-01	-3.549243E-03	5.008000E+01
-3.703731E-01	-3.549703E-03	5.052000E+01
-3.703731E-01	-3.550471E-03	5.097000E+01
-3.703731E-01	-3.551238E-03	5.141000E+01
-3.703731E-01	-3.551929E-03	5.184000E+01
-3.703731E-01	-3.552620E-03	5.229000E+01
-3.703884E-01	-3.553080E-03	5.273000E+01
-3.703808E-01	-3.553618E-03	5.320000E+01
-3.703731E-01	-3.554231E-03	5.364000E+01
-3.703501E-01	-3.554845E-03	5.409000E+01
-3.703501E-01	-3.555536E-03	5.453000E+01
-3.703578E-01	-3.556150E-03	5.498000E+01
-3.703731E-01	-3.556918E-03	5.542000E+01
-3.703808E-01	-3.557608E-03	5.585000E+01
-3.703731E-01	-3.558146E-03	5.630000E+01
-3.703731E-01	-3.558606E-03	5.674000E+01
-3.703424E-01	-3.559143E-03	5.719000E+01
-3.703501E-01	-3.559987E-03	5.763000E+01
-3.703578E-01	-3.560755E-03	5.808000E+01
-3.703424E-01	-3.561292E-03	5.852000E+01
-3.703501E-01	-3.561906E-03	5.897000E+01
-3.703731E-01	-3.563057E-03	5.984000E+01
-3.703578E-01	-3.563364E-03	6.029000E+01
-3.703501E-01	-3.563901E-03	6.073000E+01
-3.703654E-01	-3.564516E-03	6.118000E+01
-3.703731E-01	-3.565283E-03	6.162000E+01
-3.703808E-01	-3.565974E-03	6.207000E+01
-3.704115E-01	-3.566818E-03	6.251000E+01
-3.703884E-01	-3.567432E-03	6.296000E+01
-3.703731E-01	-3.567816E-03	6.340000E+01
-3.703501E-01	-3.568046E-03	6.384000E+01
-3.703424E-01	-3.568660E-03	6.429000E+01
-3.703424E-01	-3.569197E-03	6.473000E+01
-3.703424E-01	-3.569887E-03	6.518000E+01
-3.703501E-01	-3.570271E-03	6.562000E+01
-3.703808E-01	-3.570962E-03	6.606000E+01
-3.703808E-01	-3.571269E-03	6.650000E+01
-3.703731E-01	-3.571806E-03	6.695000E+01
-3.703731E-01	-3.572420E-03	6.739000E+01
-3.703808E-01	-3.573111E-03	6.783000E+01
-3.703808E-01	-3.573495E-03	6.828000E+01
-3.703808E-01	-3.574032E-03	6.872000E+01
-3.703961E-01	-3.575106E-03	6.960000E+01
-3.703961E-01	-3.575874E-03	7.005000E+01
-3.703578E-01	-3.576181E-03	7.049000E+01
-3.703424E-01	-3.576641E-03	7.094000E+01
-3.703424E-01	-3.577025E-03	7.138000E+01
-3.703424E-01	-3.577639E-03	7.182000E+01
-3.703424E-01	-3.578176E-03	7.227000E+01
-3.703501E-01	-3.578637E-03	7.270000E+01
-3.703731E-01	-3.578944E-03	7.315000E+01
-3.703731E-01	-3.579481E-03	7.359000E+01
-3.703808E-01	-3.579941E-03	7.404000E+01
-3.703884E-01	-3.580325E-03	7.448000E+01
-3.703808E-01	-3.580786E-03	7.493000E+01
-3.703808E-01	-3.581323E-03	7.537000E+01
-3.703731E-01	-3.581706E-03	7.580000E+01
-3.703808E-01	-3.582244E-03	7.625000E+01
-3.703808E-01	-3.582781E-03	7.669000E+01
-3.703808E-01	-3.583242E-03	7.714000E+01
-3.703808E-01	-3.583779E-03	7.758000E+01
-3.703884E-01	-3.584162E-03	7.803000E+01
-3.703808E-01	-3.584393E-03	7.847000E+01
-3.703808E-01	-3.584316E-03	7.892000E+01
-3.703808E-01	-3.585390E-03	7.979000E+01
-3.703961E-01	-3.585851E-03	8.024000E+01
-3.704115E-01	-3.586388E-03	8.068000E+01
-3.704115E-01	-3.586925E-03	8.113000E+01
-3.704038E-01	-3.587309E-03	8.157000E+01
-3.703884E-01	-3.587616E-03	8.203000E+01
-3.704038E-01	-3.588076E-03	8.247000E+01
-3.703731E-01	-3.588383E-03	8.292000E+01
-3.704038E-01	-3.589074E-03	8.336000E+01
-3.704191E-01	-3.589611E-03	8.379000E+01
-3.704115E-01	-3.589765E-03	8.424000E+01
-3.703884E-01	-3.590072E-03	8.468000E+01
-3.703808E-01	-3.590379E-03	8.513000E+01
-3.703808E-01	-3.590839E-03	8.557000E+01
-3.703884E-01	-3.591453E-03	8.602000E+01
-3.703884E-01	-3.591683E-03	8.646000E+01
-3.703884E-01	-3.592067E-03	8.691000E+01
-3.703808E-01	-3.592605E-03	8.734000E+01
-3.703884E-01	-3.592912E-03	8.778000E+01
-3.703884E-01	-3.593295E-03	8.823000E+01
-3.703808E-01	-3.593602E-03	8.867000E+01
-3.703731E-01	-3.593832E-03	8.912000E+01
-3.703808E-01	-3.594830E-03	9.000000E+01
-3.704115E-01	-3.595521E-03	9.044000E+01
-3.704191E-01	-3.595674E-03	9.089000E+01
-3.704115E-01	-3.596135E-03	9.133000E+01
-3.704115E-01	-3.596595E-03	9.177000E+01
-3.704268E-01	-3.597132E-03	9.222000E+01
-3.704345E-01	-3.597439E-03	9.265000E+01
-3.704191E-01	-3.597669E-03	9.310000E+01
-3.703884E-01	-3.598053E-03	9.354000E+01
-3.703808E-01	-3.598360E-03	9.399000E+01
-3.703808E-01	-3.598897E-03	9.443000E+01
-3.703808E-01	-3.599281E-03	9.486000E+01
-3.703884E-01	-3.599741E-03	9.531000E+01
-3.703808E-01	-3.599818E-03	9.575000E+01
-3.703731E-01	-3.600202E-03	9.620000E+01
-3.703578E-01	-3.600509E-03	9.663000E+01
-3.703578E-01	-3.600586E-03	9.708000E+01
-3.703578E-01	-3.601277E-03	9.753000E+01
-3.703731E-01	-3.601660E-03	9.798000E+01
-3.703808E-01	-3.601891E-03	9.841000E+01
-3.704038E-01	-3.602351E-03	9.885000E+01
-3.704115E-01	-3.603042E-03	9.973000E+01
-3.704115E-01	-3.603349E-03	1.001800E+02
-3.704115E-01	-3.603733E-03	1.006200E+02
-3.704115E-01	-3.603886E-03	1.010700E+02
-3.704345E-01	-3.604423E-03	1.015100E+02
-3.704498E-01	-3.604807E-03	1.019600E+02
-3.704422E-01	-3.605037E-03	1.024000E+02
-3.704268E-01	-3.605267E-03	1.028300E+02
-3.704115E-01	-3.605344E-03	1.032800E+02
-3.703961E-01	-3.605804E-03	1.037200E+02
-3.703884E-01	-3.606035E-03	1.041700E+02
-3.703808E-01	-3.606342E-03	1.046100E+02
-3.703808E-01	-3.606649E-03	1.050600E+02
-3.703884E-01	-3.607033E-03	1.055000E+02
-3.703808E-01	-3.607263E-03	1.059400E+02
-3.703731E-01	-3.607263E-03	1.063800E+02
-3.703654E-01	-3.607416E-03	1.068200E+02
-3.703578E-01	-3.607647E-03	1.072700E+02
-3.703578E-01	-3.607877E-03	1.077100E+02
-3.703501E-01	-3.608030E-03	1.081600E+02
-3.703501E-01	-3.608491E-03	1.085900E+02
-3.703578E-01	-3.609412E-03	1.090400E+02
-3.703578E-01	-3.610103E-03	1.099300E+02
-3.703578E-01	-3.610563E-03	1.103700E+02
-3.703654E-01	-3.611100E-03	1.108100E+02
-3.703731E-01	-3.611407E-03	1.112500E+02
-3.703808E-01	-3.611484E-03	1.116900E+02
-3.703808E-01	-3.611715E-03	1.121400E+02
-3.703808E-01	-3.611868E-03	1.125800E+02
-3.703961E-01	-3.612252E-03	1.130300E+02
-3.704115E-01	-3.612559E-03	1.134700E+02
-3.704191E-01	-3.612942E-03	1.139100E+02
-3.704115E-01	-3.613173E-03	1.143500E+02
-3.704191E-01	-3.613480E-03	1.147900E+02
-3.704191E-01	-3.613556E-03	1.152400E+02
-3.704422E-01	-3.613786E-03	1.156800E+02
-3.704498E-01	-3.614017E-03	1.161300E+02
-3.704498E-01	-3.614247E-03	1.165600E+02
-3.704422E-01	-3.614554E-03	1.170100E+02
-3.704191E-01	-3.614631E-03	1.174500E+02
-3.704191E-01	-3.614784E-03	1.179000E+02
-3.704191E-01	-3.614938E-03	1.183300E+02
-3.704115E-01	-3.615168E-03	1.187700E+02
-3.703654E-01	-3.615705E-03	1.196600E+02
-3.703578E-01	-3.615935E-03	1.201100E+02
-3.703578E-01	-3.616242E-03	1.205500E+02
-3.703578E-01	-3.616396E-03	1.210000E+02
-3.703578E-01	-3.616473E-03	1.214300E+02
-3.703578E-01	-3.616703E-03	1.218700E+02
-3.703578E-01	-3.616779E-03	1.223200E+02
-3.703578E-01	-3.617086E-03	1.227600E+02
-3.703578E-01	-3.617317E-03	1.232100E+02
-3.703654E-01	-3.617470E-03	1.236400E+02
-3.703501E-01	-3.617700E-03	1.240900E+02
-3.703578E-01	-3.618161E-03	1.245300E+02
-3.703578E-01	-3.618468E-03	1.249900E+02
-3.703884E-01	-3.618852E-03	1.254300E+02
-3.704038E-01	-3.618852E-03	1.258700E+02
-3.704115E-01	-3.619082E-03	1.263200E+02
-3.704345E-01	-3.619389E-03	1.267500E+02
-3.704345E-01	-3.619773E-03	1.272000E+02
-3.704422E-01	-3.619850E-03	1.276400E+02
-3.704422E-01	-3.620080E-03	1.280900E+02
-3.704498E-01	-3.620310E-03	1.285300E+02
-3.704498E-01	-3.620003E-03	1.289800E+02
-3.704191E-01	-3.620310E-03	1.298500E+02
-3.704115E-01	-3.620617E-03	1.303000E+02
-3.704038E-01	-3.620617E-03	1.307400E+02
-3.703961E-01	-3.620847E-03	1.311900E+02
-3.703961E-01	-3.620847E-03	1.316300E+02
-3.703961E-01	-3.620847E-03	1.320800E+02
-3.703884E-01	-3.621077E-03	1.325100E+02
-3.703808E-01	-3.621307E-03	1.329900E+02
-3.703808E-01	-3.621614E-03	1.334300E+02
-3.703808E-01	-3.621921E-03	1.338600E+02
-3.703808E-01	-3.621998E-03	1.343100E+02
-3.703884E-01	-3.622151E-03	1.347500E+02
-3.703808E-01	-3.622075E-03	1.352000E+02
-3.703808E-01	-3.622382E-03	1.356400E+02
-3.703884E-01	-3.622612E-03	1.360900E+02
-3.703884E-01	-3.622995E-03	1.365300E+02
-3.703884E-01	-3.623303E-03	1.369800E+02
-3.703884E-01	-3.623456E-03	1.374200E+02
-3.703884E-01	-3.623456E-03	1.378500E+02
-3.703884E-01	-3.623840E-03	1.383000E+02
-3.703884E-01	-3.623917E-03	1.387400E+02
-3.703884E-01	-3.624300E-03	1.396200E+02
-3.703884E-01	-3.624607E-03	1.400600E+02
-3.703961E-01	-3.624838E-03	1.405000E+02
-3.703884E-01	-3.625221E-03	1.409500E+02
-3.703884E-01	-3.625221E-03	1.413900E+02
-3.703884E-01	-3.625298E-03	1.418300E+02
-3.703961E-01	-3.625298E-03	1.422800E+02
-3.703961E-01	-3.625452E-03	1.427100E+02
-3.703961E-01	-3.625605E-03	1.431600E+02
-3.703884E-01	-3.625759E-03	1.436000E+02
-3.703961E-01	-3.625912E-03	1.440500E+02
-3.703961E-01	-3.625989E-03	1.444900E+02
-3.703961E-01	-3.626219E-03	1.449400E+02
-3.703961E-01	-3.626372E-03	1.453800E+02
-3.703961E-01	-3.626449E-03	1.458100E+02
-3.703884E-01	-3.626526E-03	1.462600E+02
-3.703961E-01	-3.626910E-03	1.467000E+02
-3.704268E-01	-3.626986E-03	1.471500E+02
-3.704268E-01	-3.627371E-03	1.475900E+02
-3.704345E-01	-3.627447E-03	1.480400E+02
-3.704345E-01	-3.627601E-03	1.484800E+02
-3.704345E-01	-3.627908E-03	1.489300E+02
-3.704191E-01	-3.628291E-03	1.498000E+02
-3.703961E-01	-3.628214E-03	1.502500E+02
-3.703884E-01	-3.628291E-03	1.506900E+02
-3.703808E-01	-3.628368E-03	1.511400E+02
-3.703578E-01	-3.628445E-03	1.515800E+02
-3.703501E-01	-3.628675E-03	1.520300E+02
-3.703578E-01	-3.628752E-03	1.524700E+02
-3.703501E-01	-3.628905E-03	1.529100E+02
-3.703578E-01	-3.629059E-03	1.533500E+02
-3.703578E-01	-3.629136E-03	1.537900E+02
-3.703501E-01	-3.629213E-03	1.542400E+02
-3.703578E-01	-3.629443E-03	1.546800E+02
-3.703501E-01	-3.629366E-03	1.551300E+02
-3.703501E-01	-3.629596E-03	1.555700E+02
-3.703501E-01	-3.629826E-03	1.560100E+02
-3.703578E-01	-3.630057E-03	1.564500E+02
-3.703578E-01	-3.630057E-03	1.569000E+02
-3.703578E-01	-3.630287E-03	1.573400E+02
-3.703578E-01	-3.630364E-03	1.577800E+02
-3.703578E-01	-3.630440E-03	1.582300E+02
-3.703578E-01	-3.630824E-03	1.586700E+02
-3.703501E-01	-3.630901E-03	1.591100E+02
-3.703501E-01	-3.631131E-03	1.600000E+02
-3.703578E-01	-3.631284E-03	1.604400E+02
-3.703501E-01	-3.631591E-03	1.608900E+02
-3.703578E-01	-3.631514E-03	1.613300E+02
-3.703578E-01	-3.631822E-03	1.617700E+02
-3.703578E-01	-3.631822E-03	1.622100E+02
-3.703578E-01	-3.632052E-03	1.626500E+02
-3.703578E-01	-3.632128E-03	1.631000E+02
-3.703578E-01	-3.632206E-03	1.635400E+02
-3.703578E-01	-3.632435E-03	1.639900E+02
-3.703578E-01	-3.632513E-03	1.644300E+02
-3.703578E-01	-3.632513E-03	1.648700E+02
-3.703578E-01	-3.632819E-03	1.653100E+02
-3.703578E-01	-3.632742E-03	1.657500E+02
-3.703578E-01	-3.632896E-03	1.662000E+02
-3.703578E-01	-3.633050E-03	1.666400E+02
-3.703501E-01	-3.633203E-03	1.670900E+02
-3.703578E-01	-3.633357E-03	1.675300E+02
-3.703654E-01	-3.633510E-03	1.679800E+02
-3.703654E-01	-3.633740E-03	1.684200E+02
-3.703808E-01	-3.634738E-03	1.688600E+02
-3.704038E-01	-3.634969E-03	1.697400E+02
-3.704191E-01	-3.634969E-03	1.701900E+02
-3.704038E-01	-3.634969E-03	1.706300E+02
-3.703808E-01	-3.634969E-03	1.710800E+02
-3.703731E-01	-3.635199E-03	1.715300E+02
-3.703884E-01	-3.635429E-03	1.719800E+02
-3.703961E-01	-3.635506E-03	1.724100E+02
-3.703884E-01	-3.635506E-03	1.728500E+02
-3.703884E-01	-3.635583E-03	1.733000E+02
-3.703808E-01	-3.635966E-03	1.737400E+02
-3.703654E-01	-3.635890E-03	1.741900E+02
-3.703578E-01	-3.635966E-03	1.746300E+02
-3.703578E-01	-3.636197E-03	1.750800E+02
-3.703501E-01	-3.636197E-03	1.755200E+02
-3.703578E-01	-3.636427E-03	1.759600E+02
-3.703501E-01	-3.636350E-03	1.764100E+02
-3.703578E-01	-3.636503E-03	1.768400E+02
-3.703578E-01	-3.636657E-03	1.772900E+02
-3.703578E-01	-3.636657E-03	1.777300E+02
-3.703808E-01	-3.636734E-03	1.781800E+02
-3.703884E-01	-3.636810E-03	1.786200E+02
-3.703961E-01	-3.636887E-03	1.790600E+02
-3.703654E-01	-3.636887E-03	1.799600E+02
-3.703808E-01	-3.637041E-03	1.803900E+02
-3.703961E-01	-3.637501E-03	1.808300E+02
-3.703961E-01	-3.637424E-03	1.812800E+02
-3.703961E-01	-3.637348E-03	1.817200E+02
-3.703808E-01	-3.637501E-03	1.821600E+02
-3.703654E-01	-3.637578E-03	1.826000E+02
-3.703577E-01	-3.637654E-03	1.830500E+02
-3.703654E-01	-3.637731E-03	1.834900E+02
-3.703808E-01	-3.637808E-03	1.839400E+02
-3.703884E-01	-3.637962E-03	1.843800E+02
-3.704038E-01	-3.638038E-03	1.848200E+02
-3.703961E-01	-3.637808E-03	1.852600E+02
-3.703808E-01	-3.637962E-03	1.857000E+02
-3.704038E-01	-3.638268E-03	1.861500E+02
-3.704038E-01	-3.638192E-03	1.865900E+02
-3.703961E-01	-3.638345E-03	1.870500E+02
-3.703731E-01	-3.638499E-03	1.874900E+02
-3.703731E-01	-3.638652E-03	1.879400E+02
-3.703654E-01	-3.638652E-03	1.883800E+02
-3.703808E-01	-3.638038E-03	1.888200E+02
-3.704038E-01	-3.637961E-03	1.897000E+02
-3.703808E-01	-3.637885E-03	1.901500E+02
-3.703884E-01	-3.637961E-03	1.905900E+02
-3.703961E-01	-3.638115E-03	1.910400E+02
-3.703961E-01	-3.637885E-03	1.914800E+02
-3.703961E-01	-3.637961E-03	1.919300E+02
-3.703731E-01	-3.638115E-03	1.923700E+02
-3.703654E-01	-3.638192E-03	1.928000E+02
-3.703731E-01	-3.638192E-03	1.932500E+02
-3.703731E-01	-3.638268E-03	1.936900E+02
-3.704038E-01	-3.638576E-03	1.941400E+02
-3.703961E-01	-3.638652E-03	1.945800E+02
-3.703808E-01	-3.638498E-03	1.950300E+02
-3.703884E-01	-3.638576E-03	1.954700E+02
-3.704038E-01	-3.638882E-03	1.959200E+02
-3.703961E-01	-3.638959E-03	1.963500E+02
-3.703731E-01	-3.638805E-03	1.967900E+02
-3.703654E-01	-3.639036E-03	1.972400E+02
-3.703731E-01	-3.639036E-03	1.976800E+02
-3.703884E-01	-3.639036E-03	1.981300E+02
-3.704038E-01	-3.639112E-03	1.985700E+02
-3.703808E-01	-3.639112E-03	1.990200E+02
-3.703884E-01	-3.639266E-03	1.999000E+02
-3.703884E-01	-3.639343E-03	2.003400E+02
-3.703731E-01	-3.639496E-03	2.007800E+02
-3.703578E-01	-3.639573E-03	2.012200E+02
-3.703654E-01	-3.639726E-03	2.016600E+02
-3.703884E-01	-3.639726E-03	2.021100E+02
-3.703884E-01	-3.639726E-03	2.025500E+02
-3.703731E-01	-3.639726E-03	2.030000E+02
-3.703884E-01	-3.639726E-03	2.034400E+02
-3.703884E-01	-3.639726E-03	2.038700E+02
-3.703731E-01	-3.639880E-03	2.043200E+02
-3.703654E-01	-3.639573E-03	2.047600E+02
-3.703808E-01	-3.639726E-03	2.052100E+02
-3.703884E-01	-3.639880E-03	2.056500E+02
-3.703808E-01	-3.639957E-03	2.061000E+02
-3.703961E-01	-3.640034E-03	2.065400E+02
-3.703884E-01	-3.639957E-03	2.069900E+02
-3.703654E-01	-3.639957E-03	2.074300E+02
-3.703654E-01	-3.640187E-03	2.078600E+02
-3.703884E-01	-3.639957E-03	2.083100E+02
-3.703731E-01	-3.640648E-03	2.087500E+02
-3.703884E-01	-3.641031E-03	2.096400E+02
-3.703731E-01	-3.641185E-03	2.100900E+02
-3.703654E-01	-3.641108E-03	2.105200E+02
-3.703731E-01	-3.641185E-03	2.109700E+02
-3.703884E-01	-3.641492E-03	2.114100E+02
-3.703731E-01	-3.641415E-03	2.118500E+02
-3.703884E-01	-3.641415E-03	2.123000E+02
-3.703961E-01	-3.641569E-03	2.127400E+02
-3.703808E-01	-3.641569E-03	2.132100E+02
-3.703654E-01	-3.641492E-03	2.136500E+02
-3.703654E-01	-3.641492E-03	2.141000E+02
-3.703808E-01	-3.641569E-03	2.145400E+02
-3.703884E-01	-3.641876E-03	2.149900E+02
-3.703808E-01	-3.641876E-03	2.154300E+02
-3.703808E-01	-3.641876E-03	2.158600E+02
-3.703884E-01	-3.642106E-03	2.163100E+02
-3.703884E-01	-3.642106E-03	2.167400E+02
-3.703808E-01	-3.642336E-03	2.172000E+02
-3.703654E-01	-3.642183E-03	2.176400E+02
-3.703731E-01	-3.642259E-03	2.180900E+02
-3.703808E-01	-3.642259E-03	2.185200E+02
-3.703884E-01	-3.641415E-03	2.189700E+02
-3.703808E-01	-3.641722E-03	2.198400E+02
-3.703961E-01	-3.641799E-03	2.202900E+02
-3.703884E-01	-3.641645E-03	2.207300E+02
-3.703808E-01	-3.641492E-03	2.211900E+02
-3.703654E-01	-3.641645E-03	2.216200E+02
-3.703731E-01	-3.641415E-03	2.220700E+02
-3.703884E-01	-3.641722E-03	2.225100E+02
-3.703884E-01	-3.641645E-03	2.229600E+02
-3.703578E-01	-3.641568E-03	2.233900E+02
-3.703884E-01	-3.641722E-03	2.238300E+02
-3.703884E-01	-3.641722E-03	2.242800E+02
-3.703731E-01	-3.641875E-03	2.247200E+02
-3.703654E-01	-3.641799E-03	2.251700E+02
-3.703654E-01	-3.641799E-03	2.256000E+02
-3.703884E-01	-3.641645E-03	2.260600E+02
-3.703884E-01	-3.641645E-03	2.265000E+02
-3.703731E-01	-3.641722E-03	2.269500E+02
-3.703884E-01	-3.641799E-03	2.273900E+02
-3.703884E-01	-3.641722E-03	2.278300E+02
-3.703808E-01	-3.641722E-03	2.282800E+02
-3.703731E-01	-3.641568E-03	2.287200E+02
-3.703731E-01	-3.641799E-03	2.296000E+02
-3.703884E-01	-3.641568E-03	2.300500E+02
-3.703884E-01	-3.641415E-03	2.304900E+02
-3.703808E-01	-3.641492E-03	2.309500E+02
-3.703654E-01	-3.641415E-03	2.313900E+02
-3.703884E-01	-3.641338E-03	2.318200E+02
-3.703884E-01	-3.641568E-03	2.322700E+02
-3.703884E-01	-3.641568E-03	2.327100E+02
-3.703884E-01	-3.641568E-03	2.331600E+02
-3.703731E-01	-3.641338E-03	2.335900E+02
-3.703578E-01	-3.641338E-03	2.340400E+02
-3.703578E-01	-3.641492E-03	2.344800E+02
-3.703808E-01	-3.641722E-03	2.349300E+02
-3.703884E-01	-3.641799E-03	2.353700E+02
-3.703961E-01	-3.641645E-03	2.358100E+02
-3.703731E-01	-3.641722E-03	2.362600E+02
-3.703808E-01	-3.641875E-03	2.367000E+02
-3.703961E-01	-3.641952E-03	2.371500E+02
-3.703961E-01	-3.642029E-03	2.375900E+02
-3.703884E-01	-3.641952E-03	2.380400E+02
-3.703731E-01	-3.641875E-03	2.384700E+02
-3.703578E-01	-3.641952E-03	2.389200E+02
-3.703884E-01	-3.642106E-03	2.397900E+02
-3.703884E-01	-3.642182E-03	2.402400E+02
-3.703808E-01	-3.641952E-03	2.406800E+02
-3.703654E-01	-3.641722E-03	2.411200E+02
-3.703884E-01	-3.642182E-03	2.415600E+02
-3.703884E-01	-3.642259E-03	2.420100E+02
-3.703884E-01	-3.642259E-03	2.424500E+02
-3.703808E-01	-3.642259E-03	2.429000E+02
-3.703731E-01	-3.642106E-03	2.433400E+02
-3.703578E-01	-3.642182E-03	2.437800E+02
-3.703578E-01	-3.642182E-03	2.442200E+02
-3.703654E-01	-3.642259E-03	2.446600E+02
-3.703884E-01	-3.642182E-03	2.451100E+02
-3.703884E-01	-3.642336E-03	2.455500E+02
-3.703884E-01	-3.642259E-03	2.460000E+02
-3.703808E-01	-3.642259E-03	2.464400E+02
-3.703578E-01	-3.642029E-03	2.468900E+02
-3.703731E-01	-3.642182E-03	2.473300E+02
-3.703884E-01	-3.642336E-03	2.477600E+02
-3.703884E-01	-3.642336E-03	2.482100E+02
-3.703884E-01	-3.642489E-03	2.486500E+02
-3.703961E-01	-3.642489E-03	2.491000E+02
-3.703884E-01	-3.642643E-03	2.499800E+02
-3.703808E-01	-3.642643E-03	2.504200E+02
-3.703654E-01	-3.642489E-03	2.508500E+02
-3.703808E-01	-3.642336E-03	2.513100E+02
-3.703654E-01	-3.642336E-03	2.517500E+02
-3.703731E-01	-3.642413E-03	2.522000E+02
-3.703884E-01	-3.642336E-03	2.526400E+02
-3.703961E-01	-3.642566E-03	2.530900E+02
-3.703884E-01	-3.642566E-03	2.535200E+02
-3.703961E-01	-3.642566E-03	2.539700E+02
-3.703884E-01	-3.642643E-03	2.544100E+02
-3.703884E-01	-3.642643E-03	2.548500E+02
-3.703961E-01	-3.642566E-03	2.553000E+02
-3.703884E-01	-3.642643E-03	2.557400E+02
-3.703654E-01	-3.642336E-03	2.561900E+02
-3.703731E-01	-3.642336E-03	2.566300E+02
-3.703731E-01	-3.642489E-03	2.570800E+02
-3.703731E-01	-3.642643E-03	2.575100E+02
-3.703884E-01	-3.642643E-03	2.579600E+02
-3.703884E-01	-3.642643E-03	2.584000E+02
-3.703884E-01	-3.642643E-03	2.588400E+02
-3.703884E-01	-3.642413E-03	2.597200E+02
-3.703884E-01	-3.642489E-03	2.601700E+02
-3.703884E-01	-3.642566E-03	2.606100E+02
-3.703884E-01	-3.642720E-03	2.610600E+02
-3.703884E-01	-3.642796E-03	2.615000E+02
-3.703884E-01	-3.642796E-03	2.619500E+02
-3.703961E-01	-3.642796E-03	2.623900E+02
-3.703884E-01	-3.642720E-03	2.628200E+02
-3.703961E-01	-3.642566E-03	2.632700E+02
-3.703884E-01	-3.642720E-03	2.637100E+02
-3.703884E-01	-3.642873E-03	2.641600E+02
-3.703808E-01	-3.642720E-03	2.646000E+02
-3.703731E-01	-3.642720E-03	2.650500E+02
-3.703808E-01	-3.642950E-03	2.654900E+02
-3.703578E-01	-3.643027E-03	2.659400E+02
-3.703578E-01	-3.643180E-03	2.663700E+02
-3.703654E-01	-3.643180E-03	2.668100E+02
-3.703808E-01	-3.643103E-03	2.672600E+02
-3.703731E-01	-3.643180E-03	2.677000E+02
-3.703731E-01	-3.643257E-03	2.681500E+02
-3.703654E-01	-3.643103E-03	2.685800E+02
-3.703578E-01	-3.642950E-03	2.690300E+02
-3.703731E-01	-3.643103E-03	2.699200E+02
-3.703731E-01	-3.643103E-03	2.703500E+02
-3.703654E-01	-3.642950E-03	2.708000E+02
-3.703654E-01	-3.642950E-03	2.712500E+02
-3.703654E-01	-3.643027E-03	2.716900E+02
-3.703578E-01	-3.642950E-03	2.721400E+02
-3.703731E-01	-3.643103E-03	2.725700E+02
-3.703731E-01	-3.643180E-03	2.730200E+02
-3.703731E-01	-3.643103E-03	2.734600E+02
-3.703654E-01	-3.643027E-03	2.739100E+02
-3.703808E-01	-3.642950E-03	2.743500E+02
-3.703884E-01	-3.642719E-03	2.747900E+02
-3.703884E-01	-3.642566E-03	2.752400E+02
-3.703884E-01	-3.642719E-03	2.756700E+02
-3.703884E-01	-3.642797E-03	2.761200E+02
-3.703884E-01	-3.642719E-03	2.765600E+02
-3.703884E-01	-3.642873E-03	2.770100E+02
-3.703884E-01	-3.642873E-03	2.774500E+02
-3.703884E-01	-3.642797E-03	2.779000E+02
-3.703884E-01	-3.642950E-03	2.783300E+02
-3.703884E-01	-3.642950E-03	2.787700E+02
-3.703808E-01	-3.642797E-03	2.796600E+02
-3.703884E-01	-3.642566E-03	2.801100E+02
-3.703884E-01	-3.642489E-03	2.805500E+02
-3.703884E-01	-3.642336E-03	2.810000E+02
-3.703808E-01	-3.642489E-03	2.814400E+02
-3.703731E-01	-3.642566E-03	2.818700E+02
-3.703731E-01	-3.642489E-03	2.823200E+02
-3.703654E-01	-3.642412E-03	2.827600E+02
-3.703654E-01	-3.642259E-03	2.832100E+02
-3.703578E-01	-3.642259E-03	2.836500E+02
-3.703654E-01	-3.642182E-03	2.841000E+02
-3.703731E-01	-3.642259E-03	2.845400E+02
-3.703731E-01	-3.642412E-03	2.849800E+02
-3.703808E-01	-3.642566E-03	2.854200E+02
-3.703654E-01	-3.642566E-03	2.858600E+02
-3.703654E-01	-3.642412E-03	2.863100E+02
-3.703731E-01	-3.642412E-03	2.867500E+02
-3.703731E-01	-3.642489E-03	2.872000E+02
-3.703731E-01	-3.642643E-03	2.876300E+02
-3.703808E-01	-3.642566E-03	2.880800E+02
-3.703808E-01	-3.642719E-03	2.885200E+02
-3.703654E-01	-3.642720E-03	2.889700E+02
-3.703578E-01	-3.642566E-03	2.898400E+02
-3.703731E-01	-3.642643E-03	2.902900E+02
-3.703808E-01	-3.642566E-03	2.907300E+02
-3.703731E-01	-3.642566E-03	2.911700E+02
-3.703654E-01	-3.642489E-03	2.916100E+02
-3.703731E-01	-3.642413E-03	2.920600E+02
-3.703808E-01	-3.642182E-03	2.925000E+02
-3.703884E-01	-3.642413E-03	2.929700E+02
-3.703961E-01	-3.642336E-03	2.934100E+02
-3.703884E-01	-3.642336E-03	2.938500E+02
-3.703884E-01	-3.642259E-03	2.943000E+02
-3.703884E-01	-3.642182E-03	2.947300E+02
-3.703808E-01	-3.642182E-03	2.951800E+02
-3.703884E-01	-3.642106E-03	2.956200E+02
-3.703884E-01	-3.642029E-03	2.960700E+02
-3.703731E-01	-3.642029E-03	2.965100E+02
-3.703654E-01	-3.642106E-03	2.969600E+02
-3.703578E-01	-3.642029E-03	2.974000E+02
-3.703578E-01	-3.642106E-03	2.978300E+02
-3.703731E-01	-3.642106E-03	2.982800E+02
-3.703808E-01	-3.641952E-03	2.987200E+02
-3.703884E-01	-3.641952E-03	2.996000E+02
-3.703884E-01	-3.641875E-03	3.000500E+02
