CORRW ASCII
  CorrWare for Windows: Version 3.5f
  Potentiostatic	[-0.37 Ref,50 Hour][default]	bias_-370mV_6.cor
  Date: 11-05-2019    Time: 21:08:46
   
   
  Open Circuit Potential (V): 0.0032
  Begin Information:          Cell Information
    Surface Area:             1
    Density:                  0
    Weight:                   0
    Polarity:                 0
    PolarityI:                0
    Corrosion Unit Type:      0
    Reference Type:           0
    Reference Potential:      0
    User-Defined Potential:   0
    Stern-Geary:              26
  End Information:            Cell Information
  Begin Pstat:                1287
    Pstat Title:              Instrument #1
    Booster Type:             0
    Booster Name:             None
    Current Range:            0
    Current Limit:            0
    Current LimitType:        0
    Sweep Type:               0
    Use Error Beep:           1
    Auxilary Type:            0
    iR Comp. Type:            0
    iR Ohms:                  0
    iR Time:                  27
    iR Ratio:                 255
    LP Filter Type:           2
    Drift Correction:         1
    Null Correction:          0
    Pstat Bandwidth Type:     2
    Gstat Bandwidth Type:     2
    External Input:           0
    SafetyMinV:               0
    SafetyMaxV:               10
    SafetyMinI:               0
    SafetyMaxI:               4
    SafetyMinQ:               0
    SafetyMaxQ:               1000
    SafetyMinT:               0
    SafetyMaxT:               50
    SafetyChT:                0
    SafetyMinVUse:            0
    SafetyMaxVUse:            0
    SafetyMinIUse:            0
    SafetyMaxIUse:            0
    SafetyMinQUse:            0
    SafetyMaxQUse:            0
    SafetyMinTUse:            0
    SafetyMaxTUse:            0
  End Pstat:                  1287
  Begin Experiment:           Potentiostatic	[-0.37 Ref,50 Hour][default]	bias_-370mV_6.cor
    Data File:                Z:\191101_Amezawa\fr_XAS\DPB2\700C_100%O2\Electrochem\bias_-370mV_6.cor
    Data Append:              0
    Comment Lines:            0
    Potential:                -0.37
    Potential Type:           1
    Total Time:               50
    Time Units:               2
    Time Marker:              -1
    Measure Rate Type:        1
    Measure Rate #1:          2000
    Measure Rate #2:          10
    Measure Rate #3:          0.1
    Measure Rate #4:          2
    Use Threshold:            0
    Threshold I_Min:          -15
    Threshold I_Max:          15
    Threshold Delta:          5
    Threshold Time:           60
    Copy AuxV:                0
    Axes Type:                1
    Use Custom Pstat:         0
  End Experiment:             Potentiostatic	[-0.37 Ref,50 Hour][default]	bias_-370mV_6.cor
  Data Points:                1288
  E(Volts)	I(A/cm2)	T(Seconds)
End Comments
-3.603778E-01	-1.981241E-03	0.000000E+00
-3.703578E-01	-2.864590E-03	8.900000E-01
-3.703578E-01	-3.074184E-03	1.340000E+00
-3.703501E-01	-3.207415E-03	1.770000E+00
-3.703424E-01	-3.297515E-03	2.230000E+00
-3.703424E-01	-3.354308E-03	2.670000E+00
-3.703347E-01	-3.392067E-03	3.120000E+00
-3.703347E-01	-3.416165E-03	3.560000E+00
-3.703347E-01	-3.432358E-03	4.010000E+00
-3.703347E-01	-3.442873E-03	4.440000E+00
-3.703347E-01	-3.450087E-03	4.890000E+00
-3.703424E-01	-3.454999E-03	5.330000E+00
-3.703347E-01	-3.458606E-03	5.770000E+00
-3.703347E-01	-3.461369E-03	6.220000E+00
-3.703347E-01	-3.463364E-03	6.660000E+00
-3.703347E-01	-3.465206E-03	7.110000E+00
-3.703347E-01	-3.466817E-03	7.550000E+00
-3.703347E-01	-3.468122E-03	7.990000E+00
-3.703347E-01	-3.469427E-03	8.430000E+00
-3.703347E-01	-3.469887E-03	8.870000E+00
-3.703270E-01	-3.472113E-03	9.750000E+00
-3.703270E-01	-3.473264E-03	1.020000E+01
-3.703347E-01	-3.474262E-03	1.064000E+01
-3.703270E-01	-3.475182E-03	1.109000E+01
-3.703347E-01	-3.476181E-03	1.152000E+01
-3.703347E-01	-3.477255E-03	1.198000E+01
-3.703347E-01	-3.478406E-03	1.242000E+01
-3.703424E-01	-3.479327E-03	1.286000E+01
-3.703578E-01	-3.480402E-03	1.331000E+01
-3.703654E-01	-3.481476E-03	1.374000E+01
-3.703578E-01	-3.482320E-03	1.419000E+01
-3.703654E-01	-3.483548E-03	1.463000E+01
-3.703654E-01	-3.484315E-03	1.508000E+01
-3.703654E-01	-3.485390E-03	1.552000E+01
-3.703654E-01	-3.486311E-03	1.596000E+01
-3.703654E-01	-3.487309E-03	1.640000E+01
-3.703578E-01	-3.488153E-03	1.684000E+01
-3.703578E-01	-3.489304E-03	1.729000E+01
-3.703578E-01	-3.490148E-03	1.774000E+01
-3.703578E-01	-3.490992E-03	1.819000E+01
-3.703501E-01	-3.491990E-03	1.862000E+01
-3.703501E-01	-3.492911E-03	1.907000E+01
-3.703347E-01	-3.494830E-03	1.995000E+01
-3.703347E-01	-3.495674E-03	2.039000E+01
-3.703347E-01	-3.496595E-03	2.083000E+01
-3.703424E-01	-3.497592E-03	2.128000E+01
-3.703424E-01	-3.498513E-03	2.172000E+01
-3.703424E-01	-3.499357E-03	2.217000E+01
-3.703347E-01	-3.500125E-03	2.261000E+01
-3.703347E-01	-3.500816E-03	2.306000E+01
-3.703424E-01	-3.501583E-03	2.349000E+01
-3.703424E-01	-3.502581E-03	2.394000E+01
-3.703424E-01	-3.503732E-03	2.438000E+01
-3.703654E-01	-3.504499E-03	2.482000E+01
-3.703731E-01	-3.505344E-03	2.527000E+01
-3.703808E-01	-3.506111E-03	2.570000E+01
-3.703808E-01	-3.507109E-03	2.615000E+01
-3.703808E-01	-3.508030E-03	2.659000E+01
-3.703808E-01	-3.508951E-03	2.704000E+01
-3.704115E-01	-3.510026E-03	2.748000E+01
-3.704345E-01	-3.510947E-03	2.793000E+01
-3.704345E-01	-3.511637E-03	2.837000E+01
-3.704345E-01	-3.513019E-03	2.880000E+01
-3.704268E-01	-3.514630E-03	2.969000E+01
-3.704038E-01	-3.515398E-03	3.014000E+01
-3.704038E-01	-3.516242E-03	3.058000E+01
-3.703961E-01	-3.517086E-03	3.103000E+01
-3.703808E-01	-3.518084E-03	3.147000E+01
-3.703731E-01	-3.518852E-03	3.192000E+01
-3.703654E-01	-3.519389E-03	3.236000E+01
-3.703654E-01	-3.520156E-03	3.279000E+01
-3.703578E-01	-3.521077E-03	3.324000E+01
-3.703578E-01	-3.521922E-03	3.368000E+01
-3.703654E-01	-3.522842E-03	3.413000E+01
-3.703654E-01	-3.523763E-03	3.457000E+01
-3.703884E-01	-3.524454E-03	3.502000E+01
-3.704115E-01	-3.525221E-03	3.545000E+01
-3.704115E-01	-3.526142E-03	3.590000E+01
-3.704038E-01	-3.526833E-03	3.634000E+01
-3.704038E-01	-3.527677E-03	3.677000E+01
-3.703808E-01	-3.528445E-03	3.723000E+01
-3.703731E-01	-3.529135E-03	3.767000E+01
-3.703654E-01	-3.529750E-03	3.812000E+01
-3.703731E-01	-3.530670E-03	3.855000E+01
-3.703808E-01	-3.530670E-03	3.900000E+01
-3.703731E-01	-3.532359E-03	3.987000E+01
-3.704038E-01	-3.533126E-03	4.032000E+01
-3.703808E-01	-3.533510E-03	4.076000E+01
-3.703731E-01	-3.534431E-03	4.121000E+01
-3.704038E-01	-3.535352E-03	4.165000E+01
-3.703884E-01	-3.536043E-03	4.210000E+01
-3.703731E-01	-3.536810E-03	4.253000E+01
-3.703731E-01	-3.537424E-03	4.298000E+01
-3.703808E-01	-3.538114E-03	4.342000E+01
-3.703731E-01	-3.538728E-03	4.386000E+01
-3.703808E-01	-3.539496E-03	4.431000E+01
-3.703808E-01	-3.539956E-03	4.475000E+01
-3.703884E-01	-3.540801E-03	4.520000E+01
-3.703961E-01	-3.541568E-03	4.563000E+01
-3.703808E-01	-3.542105E-03	4.608000E+01
-3.703578E-01	-3.542873E-03	4.652000E+01
-3.703501E-01	-3.543487E-03	4.698000E+01
-3.703731E-01	-3.544331E-03	4.742000E+01
-3.703808E-01	-3.545098E-03	4.785000E+01
-3.703808E-01	-3.545712E-03	4.830000E+01
-3.703501E-01	-3.547094E-03	4.874000E+01
-3.703731E-01	-3.548629E-03	4.963000E+01
-3.703731E-01	-3.549243E-03	5.008000E+01
-3.703731E-01	-3.549703E-03	5.052000E+01
-3.703731E-01	-3.550471E-03	5.097000E+01
-3.703731E-01	-3.551238E-03	5.141000E+01
-3.703731E-01	-3.551929E-03	5.184000E+01
-3.703731E-01	-3.552620E-03	5.229000E+01
-3.703884E-01	-3.553080E-03	5.273000E+01
-3.703808E-01	-3.553618E-03	5.320000E+01
-3.703731E-01	-3.554231E-03	5.364000E+01
-3.703501E-01	-3.554845E-03	5.409000E+01
-3.703501E-01	-3.555536E-03	5.453000E+01
-3.703578E-01	-3.556150E-03	5.498000E+01
-3.703731E-01	-3.556918E-03	5.542000E+01
-3.703808E-01	-3.557608E-03	5.585000E+01
-3.703731E-01	-3.558146E-03	5.630000E+01
-3.703731E-01	-3.558606E-03	5.674000E+01
-3.703424E-01	-3.559143E-03	5.719000E+01
-3.703501E-01	-3.559987E-03	5.763000E+01
-3.703578E-01	-3.560755E-03	5.808000E+01
-3.703424E-01	-3.561292E-03	5.852000E+01
-3.703501E-01	-3.561906E-03	5.897000E+01
-3.703731E-01	-3.563057E-03	5.984000E+01
-3.703578E-01	-3.563364E-03	6.029000E+01
-3.703501E-01	-3.563901E-03	6.073000E+01
-3.703654E-01	-3.564516E-03	6.118000E+01
-3.703731E-01	-3.565283E-03	6.162000E+01
-3.703808E-01	-3.565974E-03	6.207000E+01
-3.704115E-01	-3.566818E-03	6.251000E+01
-3.703884E-01	-3.567432E-03	6.296000E+01
-3.703731E-01	-3.567816E-03	6.340000E+01
-3.703501E-01	-3.568046E-03	6.384000E+01
-3.703424E-01	-3.568660E-03	6.429000E+01
-3.703424E-01	-3.569197E-03	6.473000E+01
-3.703424E-01	-3.569887E-03	6.518000E+01
-3.703501E-01	-3.570271E-03	6.562000E+01
-3.703808E-01	-3.570962E-03	6.606000E+01
-3.703808E-01	-3.571269E-03	6.650000E+01
-3.703731E-01	-3.571806E-03	6.695000E+01
-3.703731E-01	-3.572420E-03	6.739000E+01
-3.703808E-01	-3.573111E-03	6.783000E+01
-3.703808E-01	-3.573495E-03	6.828000E+01
-3.703808E-01	-3.574032E-03	6.872000E+01
-3.703961E-01	-3.575106E-03	6.960000E+01
-3.703961E-01	-3.575874E-03	7.005000E+01
-3.703578E-01	-3.576181E-03	7.049000E+01
-3.703424E-01	-3.576641E-03	7.094000E+01
-3.703424E-01	-3.577025E-03	7.138000E+01
-3.703424E-01	-3.577639E-03	7.182000E+01
-3.703424E-01	-3.578176E-03	7.227000E+01
-3.703501E-01	-3.578637E-03	7.270000E+01
-3.703731E-01	-3.578944E-03	7.315000E+01
-3.703731E-01	-3.579481E-03	7.359000E+01
-3.703808E-01	-3.579941E-03	7.404000E+01
-3.703884E-01	-3.580325E-03	7.448000E+01
-3.703808E-01	-3.580786E-03	7.493000E+01
-3.703808E-01	-3.581323E-03	7.537000E+01
-3.703731E-01	-3.581706E-03	7.580000E+01
-3.703808E-01	-3.582244E-03	7.625000E+01
-3.703808E-01	-3.582781E-03	7.669000E+01
-3.703808E-01	-3.583242E-03	7.714000E+01
-3.703808E-01	-3.583779E-03	7.758000E+01
-3.703884E-01	-3.584162E-03	7.803000E+01
-3.703808E-01	-3.584393E-03	7.847000E+01
-3.703808E-01	-3.584316E-03	7.892000E+01
-3.703808E-01	-3.585390E-03	7.979000E+01
-3.703961E-01	-3.585851E-03	8.024000E+01
-3.704115E-01	-3.586388E-03	8.068000E+01
-3.704115E-01	-3.586925E-03	8.113000E+01
-3.704038E-01	-3.587309E-03	8.157000E+01
-3.703884E-01	-3.587616E-03	8.203000E+01
-3.704038E-01	-3.588076E-03	8.247000E+01
-3.703731E-01	-3.588383E-03	8.292000E+01
-3.704038E-01	-3.589074E-03	8.336000E+01
-3.704191E-01	-3.589611E-03	8.379000E+01
-3.704115E-01	-3.589765E-03	8.424000E+01
-3.703884E-01	-3.590072E-03	8.468000E+01
-3.703808E-01	-3.590379E-03	8.513000E+01
-3.703808E-01	-3.590839E-03	8.557000E+01
-3.703884E-01	-3.591453E-03	8.602000E+01
-3.703884E-01	-3.591683E-03	8.646000E+01
-3.703884E-01	-3.592067E-03	8.691000E+01
-3.703808E-01	-3.592605E-03	8.734000E+01
-3.703884E-01	-3.592912E-03	8.778000E+01
-3.703884E-01	-3.593295E-03	8.823000E+01
-3.703808E-01	-3.593602E-03	8.867000E+01
-3.703731E-01	-3.593832E-03	8.912000E+01
-3.703808E-01	-3.594830E-03	9.000000E+01
-3.704115E-01	-3.595521E-03	9.044000E+01
-3.704191E-01	-3.595674E-03	9.089000E+01
-3.704115E-01	-3.596135E-03	9.133000E+01
-3.704115E-01	-3.596595E-03	9.177000E+01
-3.704268E-01	-3.597132E-03	9.222000E+01
-3.704345E-01	-3.597439E-03	9.265000E+01
-3.704191E-01	-3.597669E-03	9.310000E+01
-3.703884E-01	-3.598053E-03	9.354000E+01
-3.703808E-01	-3.598360E-03	9.399000E+01
-3.703808E-01	-3.598897E-03	9.443000E+01
-3.703808E-01	-3.599281E-03	9.486000E+01
-3.703884E-01	-3.599741E-03	9.531000E+01
-3.703808E-01	-3.599818E-03	9.575000E+01
-3.703731E-01	-3.600202E-03	9.620000E+01
-3.703578E-01	-3.600509E-03	9.663000E+01
-3.703578E-01	-3.600586E-03	9.708000E+01
-3.703578E-01	-3.601277E-03	9.753000E+01
-3.703731E-01	-3.601660E-03	9.798000E+01
-3.703808E-01	-3.601891E-03	9.841000E+01
-3.704038E-01	-3.602351E-03	9.885000E+01
-3.704115E-01	-3.603042E-03	9.973000E+01
-3.704115E-01	-3.603349E-03	1.001800E+02
-3.704115E-01	-3.603733E-03	1.006200E+02
-3.704115E-01	-3.603886E-03	1.010700E+02
-3.704345E-01	-3.604423E-03	1.015100E+02
-3.704498E-01	-3.604807E-03	1.019600E+02
-3.704422E-01	-3.605037E-03	1.024000E+02
-3.704268E-01	-3.605267E-03	1.028300E+02
-3.704115E-01	-3.605344E-03	1.032800E+02
-3.703961E-01	-3.605804E-03	1.037200E+02
-3.703884E-01	-3.606035E-03	1.041700E+02
-3.703808E-01	-3.606342E-03	1.046100E+02
-3.703808E-01	-3.606649E-03	1.050600E+02
-3.703884E-01	-3.607033E-03	1.055000E+02
-3.703808E-01	-3.607263E-03	1.059400E+02
-3.703731E-01	-3.607263E-03	1.063800E+02
-3.703654E-01	-3.607416E-03	1.068200E+02
-3.703578E-01	-3.607647E-03	1.072700E+02
-3.703578E-01	-3.607877E-03	1.077100E+02
-3.703501E-01	-3.608030E-03	1.081600E+02
-3.703501E-01	-3.608491E-03	1.085900E+02
-3.703578E-01	-3.609412E-03	1.090400E+02
-3.703578E-01	-3.610103E-03	1.099300E+02
-3.703578E-01	-3.610563E-03	1.103700E+02
-3.703654E-01	-3.611100E-03	1.108100E+02
-3.703731E-01	-3.611407E-03	1.112500E+02
-3.703808E-01	-3.611484E-03	1.116900E+02
-3.703808E-01	-3.611715E-03	1.121400E+02
-3.703808E-01	-3.611868E-03	1.125800E+02
-3.703961E-01	-3.612252E-03	1.130300E+02
-3.704115E-01	-3.612559E-03	1.134700E+02
-3.704191E-01	-3.612942E-03	1.139100E+02
-3.704115E-01	-3.613173E-03	1.143500E+02
-3.704191E-01	-3.613480E-03	1.147900E+02
-3.704191E-01	-3.613556E-03	1.152400E+02
-3.704422E-01	-3.613786E-03	1.156800E+02
-3.704498E-01	-3.614017E-03	1.161300E+02
-3.704498E-01	-3.614247E-03	1.165600E+02
-3.704422E-01	-3.614554E-03	1.170100E+02
-3.704191E-01	-3.614631E-03	1.174500E+02
-3.704191E-01	-3.614784E-03	1.179000E+02
-3.704191E-01	-3.614938E-03	1.183300E+02
-3.704115E-01	-3.615168E-03	1.187700E+02
-3.703654E-01	-3.615705E-03	1.196600E+02
-3.703578E-01	-3.615935E-03	1.201100E+02
-3.703578E-01	-3.616242E-03	1.205500E+02
-3.703578E-01	-3.616396E-03	1.210000E+02
-3.703578E-01	-3.616473E-03	1.214300E+02
-3.703578E-01	-3.616703E-03	1.218700E+02
-3.703578E-01	-3.616779E-03	1.223200E+02
-3.703578E-01	-3.617086E-03	1.227600E+02
-3.703578E-01	-3.617317E-03	1.232100E+02
-3.703654E-01	-3.617470E-03	1.236400E+02
-3.703501E-01	-3.617700E-03	1.240900E+02
-3.703578E-01	-3.618161E-03	1.245300E+02
-3.703578E-01	-3.618468E-03	1.249900E+02
-3.703884E-01	-3.618852E-03	1.254300E+02
-3.704038E-01	-3.618852E-03	1.258700E+02
-3.704115E-01	-3.619082E-03	1.263200E+02
-3.704345E-01	-3.619389E-03	1.267500E+02
-3.704345E-01	-3.619773E-03	1.272000E+02
-3.704422E-01	-3.619850E-03	1.276400E+02
-3.704422E-01	-3.620080E-03	1.280900E+02
-3.704498E-01	-3.620310E-03	1.285300E+02
-3.704498E-01	-3.620003E-03	1.289800E+02
-3.704191E-01	-3.620310E-03	1.298500E+02
-3.704115E-01	-3.620617E-03	1.303000E+02
-3.704038E-01	-3.620617E-03	1.307400E+02
-3.703961E-01	-3.620847E-03	1.311900E+02
-3.703961E-01	-3.620847E-03	1.316300E+02
-3.703961E-01	-3.620847E-03	1.320800E+02
-3.703884E-01	-3.621077E-03	1.325100E+02
-3.703808E-01	-3.621307E-03	1.329900E+02
-3.703808E-01	-3.621614E-03	1.334300E+02
-3.703808E-01	-3.621921E-03	1.338600E+02
-3.703808E-01	-3.621998E-03	1.343100E+02
-3.703884E-01	-3.622151E-03	1.347500E+02
-3.703808E-01	-3.622075E-03	1.352000E+02
-3.703808E-01	-3.622382E-03	1.356400E+02
-3.703884E-01	-3.622612E-03	1.360900E+02
-3.703884E-01	-3.622995E-03	1.365300E+02
-3.703884E-01	-3.623303E-03	1.369800E+02
-3.703884E-01	-3.623456E-03	1.374200E+02
-3.703884E-01	-3.623456E-03	1.378500E+02
-3.703884E-01	-3.623840E-03	1.383000E+02
-3.703884E-01	-3.623917E-03	1.387400E+02
-3.703884E-01	-3.624300E-03	1.396200E+02
-3.703884E-01	-3.624607E-03	1.400600E+02
-3.703961E-01	-3.624838E-03	1.405000E+02
-3.703884E-01	-3.625221E-03	1.409500E+02
-3.703884E-01	-3.625221E-03	1.413900E+02
-3.703884E-01	-3.625298E-03	1.418300E+02
-3.703961E-01	-3.625298E-03	1.422800E+02
-3.703961E-01	-3.625452E-03	1.427100E+02
-3.703961E-01	-3.625605E-03	1.431600E+02
-3.703884E-01	-3.625759E-03	1.436000E+02
-3.703961E-01	-3.625912E-03	1.440500E+02
-3.703961E-01	-3.625989E-03	1.444900E+02
-3.703961E-01	-3.626219E-03	1.449400E+02
-3.703961E-01	-3.626372E-03	1.453800E+02
-3.703961E-01	-3.626449E-03	1.458100E+02
-3.703884E-01	-3.626526E-03	1.462600E+02
-3.703961E-01	-3.626910E-03	1.467000E+02
-3.704268E-01	-3.626986E-03	1.471500E+02
-3.704268E-01	-3.627371E-03	1.475900E+02
-3.704345E-01	-3.627447E-03	1.480400E+02
-3.704345E-01	-3.627601E-03	1.484800E+02
-3.704345E-01	-3.627908E-03	1.489300E+02
-3.704191E-01	-3.628291E-03	1.498000E+02
-3.703961E-01	-3.628214E-03	1.502500E+02
-3.703884E-01	-3.628291E-03	1.506900E+02
-3.703808E-01	-3.628368E-03	1.511400E+02
-3.703578E-01	-3.628445E-03	1.515800E+02
-3.703501E-01	-3.628675E-03	1.520300E+02
-3.703578E-01	-3.628752E-03	1.524700E+02
-3.703501E-01	-3.628905E-03	1.529100E+02
-3.703578E-01	-3.629059E-03	1.533500E+02
-3.703578E-01	-3.629136E-03	1.537900E+02
-3.703501E-01	-3.629213E-03	1.542400E+02
-3.703578E-01	-3.629443E-03	1.546800E+02
-3.703501E-01	-3.629366E-03	1.551300E+02
-3.703501E-01	-3.629596E-03	1.555700E+02
-3.703501E-01	-3.629826E-03	1.560100E+02
-3.703578E-01	-3.630057E-03	1.564500E+02
-3.703578E-01	-3.630057E-03	1.569000E+02
-3.703578E-01	-3.630287E-03	1.573400E+02
-3.703578E-01	-3.630364E-03	1.577800E+02
-3.703578E-01	-3.630440E-03	1.582300E+02
-3.703578E-01	-3.630824E-03	1.586700E+02
-3.703501E-01	-3.630901E-03	1.591100E+02
-3.703501E-01	-3.631131E-03	1.600000E+02
-3.703578E-01	-3.631284E-03	1.604400E+02
-3.703501E-01	-3.631591E-03	1.608900E+02
-3.703578E-01	-3.631514E-03	1.613300E+02
-3.703578E-01	-3.631822E-03	1.617700E+02
-3.703578E-01	-3.631822E-03	1.622100E+02
-3.703578E-01	-3.632052E-03	1.626500E+02
-3.703578E-01	-3.632128E-03	1.631000E+02
-3.703578E-01	-3.632206E-03	1.635400E+02
-3.703578E-01	-3.632435E-03	1.639900E+02
-3.703578E-01	-3.632513E-03	1.644300E+02
-3.703578E-01	-3.632513E-03	1.648700E+02
-3.703578E-01	-3.632819E-03	1.653100E+02
-3.703578E-01	-3.632742E-03	1.657500E+02
-3.703578E-01	-3.632896E-03	1.662000E+02
-3.703578E-01	-3.633050E-03	1.666400E+02
-3.703501E-01	-3.633203E-03	1.670900E+02
-3.703578E-01	-3.633357E-03	1.675300E+02
-3.703654E-01	-3.633510E-03	1.679800E+02
-3.703654E-01	-3.633740E-03	1.684200E+02
-3.703808E-01	-3.634738E-03	1.688600E+02
-3.704038E-01	-3.634969E-03	1.697400E+02
-3.704191E-01	-3.634969E-03	1.701900E+02
-3.704038E-01	-3.634969E-03	1.706300E+02
-3.703808E-01	-3.634969E-03	1.710800E+02
-3.703731E-01	-3.635199E-03	1.715300E+02
-3.703884E-01	-3.635429E-03	1.719800E+02
-3.703961E-01	-3.635506E-03	1.724100E+02
-3.703884E-01	-3.635506E-03	1.728500E+02
-3.703884E-01	-3.635583E-03	1.733000E+02
-3.703808E-01	-3.635966E-03	1.737400E+02
-3.703654E-01	-3.635890E-03	1.741900E+02
-3.703578E-01	-3.635966E-03	1.746300E+02
-3.703578E-01	-3.636197E-03	1.750800E+02
-3.703501E-01	-3.636197E-03	1.755200E+02
-3.703578E-01	-3.636427E-03	1.759600E+02
-3.703501E-01	-3.636350E-03	1.764100E+02
-3.703578E-01	-3.636503E-03	1.768400E+02
-3.703578E-01	-3.636657E-03	1.772900E+02
-3.703578E-01	-3.636657E-03	1.777300E+02
-3.703808E-01	-3.636734E-03	1.781800E+02
-3.703884E-01	-3.636810E-03	1.786200E+02
-3.703961E-01	-3.636887E-03	1.790600E+02
-3.703654E-01	-3.636887E-03	1.799600E+02
-3.703808E-01	-3.637041E-03	1.803900E+02
-3.703961E-01	-3.637501E-03	1.808300E+02
-3.703961E-01	-3.637424E-03	1.812800E+02
-3.703961E-01	-3.637348E-03	1.817200E+02
-3.703808E-01	-3.637501E-03	1.821600E+02
-3.703654E-01	-3.637578E-03	1.826000E+02
-3.703577E-01	-3.637654E-03	1.830500E+02
-3.703654E-01	-3.637731E-03	1.834900E+02
-3.703808E-01	-3.637808E-03	1.839400E+02
-3.703884E-01	-3.637962E-03	1.843800E+02
-3.704038E-01	-3.638038E-03	1.848200E+02
-3.703961E-01	-3.637808E-03	1.852600E+02
-3.703808E-01	-3.637962E-03	1.857000E+02
-3.704038E-01	-3.638268E-03	1.861500E+02
-3.704038E-01	-3.638192E-03	1.865900E+02
-3.703961E-01	-3.638345E-03	1.870500E+02
-3.703731E-01	-3.638499E-03	1.874900E+02
-3.703731E-01	-3.638652E-03	1.879400E+02
-3.703654E-01	-3.638652E-03	1.883800E+02
-3.703808E-01	-3.638038E-03	1.888200E+02
-3.704038E-01	-3.637961E-03	1.897000E+02
-3.703808E-01	-3.637885E-03	1.901500E+02
-3.703884E-01	-3.637961E-03	1.905900E+02
-3.703961E-01	-3.638115E-03	1.910400E+02
-3.703961E-01	-3.637885E-03	1.914800E+02
-3.703961E-01	-3.637961E-03	1.919300E+02
-3.703731E-01	-3.638115E-03	1.923700E+02
-3.703654E-01	-3.638192E-03	1.928000E+02
-3.703731E-01	-3.638192E-03	1.932500E+02
-3.703731E-01	-3.638268E-03	1.936900E+02
-3.704038E-01	-3.638576E-03	1.941400E+02
-3.703961E-01	-3.638652E-03	1.945800E+02
-3.703808E-01	-3.638498E-03	1.950300E+02
-3.703884E-01	-3.638576E-03	1.954700E+02
-3.704038E-01	-3.638882E-03	1.959200E+02
-3.703961E-01	-3.638959E-03	1.963500E+02
-3.703731E-01	-3.638805E-03	1.967900E+02
-3.703654E-01	-3.639036E-03	1.972400E+02
-3.703731E-01	-3.639036E-03	1.976800E+02
-3.703884E-01	-3.639036E-03	1.981300E+02
-3.704038E-01	-3.639112E-03	1.985700E+02
-3.703808E-01	-3.639112E-03	1.990200E+02
-3.703884E-01	-3.639266E-03	1.999000E+02
-3.703884E-01	-3.639343E-03	2.003400E+02
-3.703731E-01	-3.639496E-03	2.007800E+02
-3.703578E-01	-3.639573E-03	2.012200E+02
-3.703654E-01	-3.639726E-03	2.016600E+02
-3.703884E-01	-3.639726E-03	2.021100E+02
-3.703884E-01	-3.639726E-03	2.025500E+02
-3.703731E-01	-3.639726E-03	2.030000E+02
-3.703884E-01	-3.639726E-03	2.034400E+02
-3.703884E-01	-3.639726E-03	2.038700E+02
-3.703731E-01	-3.639880E-03	2.043200E+02
-3.703654E-01	-3.639573E-03	2.047600E+02
-3.703808E-01	-3.639726E-03	2.052100E+02
-3.703884E-01	-3.639880E-03	2.056500E+02
-3.703808E-01	-3.639957E-03	2.061000E+02
-3.703961E-01	-3.640034E-03	2.065400E+02
-3.703884E-01	-3.639957E-03	2.069900E+02
-3.703654E-01	-3.639957E-03	2.074300E+02
-3.703654E-01	-3.640187E-03	2.078600E+02
-3.703884E-01	-3.639957E-03	2.083100E+02
-3.703731E-01	-3.640648E-03	2.087500E+02
-3.703884E-01	-3.641031E-03	2.096400E+02
-3.703731E-01	-3.641185E-03	2.100900E+02
-3.703654E-01	-3.641108E-03	2.105200E+02
-3.703731E-01	-3.641185E-03	2.109700E+02
-3.703884E-01	-3.641492E-03	2.114100E+02
-3.703731E-01	-3.641415E-03	2.118500E+02
-3.703884E-01	-3.641415E-03	2.123000E+02
-3.703961E-01	-3.641569E-03	2.127400E+02
-3.703808E-01	-3.641569E-03	2.132100E+02
-3.703654E-01	-3.641492E-03	2.136500E+02
-3.703654E-01	-3.641492E-03	2.141000E+02
-3.703808E-01	-3.641569E-03	2.145400E+02
-3.703884E-01	-3.641876E-03	2.149900E+02
-3.703808E-01	-3.641876E-03	2.154300E+02
-3.703808E-01	-3.641876E-03	2.158600E+02
-3.703884E-01	-3.642106E-03	2.163100E+02
-3.703884E-01	-3.642106E-03	2.167400E+02
-3.703808E-01	-3.642336E-03	2.172000E+02
-3.703654E-01	-3.642183E-03	2.176400E+02
-3.703731E-01	-3.642259E-03	2.180900E+02
-3.703808E-01	-3.642259E-03	2.185200E+02
-3.703884E-01	-3.641415E-03	2.189700E+02
-3.703808E-01	-3.641722E-03	2.198400E+02
-3.703961E-01	-3.641799E-03	2.202900E+02
-3.703884E-01	-3.641645E-03	2.207300E+02
-3.703808E-01	-3.641492E-03	2.211900E+02
-3.703654E-01	-3.641645E-03	2.216200E+02
-3.703731E-01	-3.641415E-03	2.220700E+02
-3.703884E-01	-3.641722E-03	2.225100E+02
-3.703884E-01	-3.641645E-03	2.229600E+02
-3.703578E-01	-3.641568E-03	2.233900E+02
-3.703884E-01	-3.641722E-03	2.238300E+02
-3.703884E-01	-3.641722E-03	2.242800E+02
-3.703731E-01	-3.641875E-03	2.247200E+02
-3.703654E-01	-3.641799E-03	2.251700E+02
-3.703654E-01	-3.641799E-03	2.256000E+02
-3.703884E-01	-3.641645E-03	2.260600E+02
-3.703884E-01	-3.641645E-03	2.265000E+02
-3.703731E-01	-3.641722E-03	2.269500E+02
-3.703884E-01	-3.641799E-03	2.273900E+02
-3.703884E-01	-3.641722E-03	2.278300E+02
-3.703808E-01	-3.641722E-03	2.282800E+02
-3.703731E-01	-3.641568E-03	2.287200E+02
-3.703731E-01	-3.641799E-03	2.296000E+02
-3.703884E-01	-3.641568E-03	2.300500E+02
-3.703884E-01	-3.641415E-03	2.304900E+02
-3.703808E-01	-3.641492E-03	2.309500E+02
-3.703654E-01	-3.641415E-03	2.313900E+02
-3.703884E-01	-3.641338E-03	2.318200E+02
-3.703884E-01	-3.641568E-03	2.322700E+02
-3.703884E-01	-3.641568E-03	2.327100E+02
-3.703884E-01	-3.641568E-03	2.331600E+02
-3.703731E-01	-3.641338E-03	2.335900E+02
-3.703578E-01	-3.641338E-03	2.340400E+02
-3.703578E-01	-3.641492E-03	2.344800E+02
-3.703808E-01	-3.641722E-03	2.349300E+02
-3.703884E-01	-3.641799E-03	2.353700E+02
-3.703961E-01	-3.641645E-03	2.358100E+02
-3.703731E-01	-3.641722E-03	2.362600E+02
-3.703808E-01	-3.641875E-03	2.367000E+02
-3.703961E-01	-3.641952E-03	2.371500E+02
-3.703961E-01	-3.642029E-03	2.375900E+02
-3.703884E-01	-3.641952E-03	2.380400E+02
-3.703731E-01	-3.641875E-03	2.384700E+02
-3.703578E-01	-3.641952E-03	2.389200E+02
-3.703884E-01	-3.642106E-03	2.397900E+02
-3.703884E-01	-3.642182E-03	2.402400E+02
-3.703808E-01	-3.641952E-03	2.406800E+02
-3.703654E-01	-3.641722E-03	2.411200E+02
-3.703884E-01	-3.642182E-03	2.415600E+02
-3.703884E-01	-3.642259E-03	2.420100E+02
-3.703884E-01	-3.642259E-03	2.424500E+02
-3.703808E-01	-3.642259E-03	2.429000E+02
-3.703731E-01	-3.642106E-03	2.433400E+02
-3.703578E-01	-3.642182E-03	2.437800E+02
-3.703578E-01	-3.642182E-03	2.442200E+02
-3.703654E-01	-3.642259E-03	2.446600E+02
-3.703884E-01	-3.642182E-03	2.451100E+02
-3.703884E-01	-3.642336E-03	2.455500E+02
-3.703884E-01	-3.642259E-03	2.460000E+02
-3.703808E-01	-3.642259E-03	2.464400E+02
-3.703578E-01	-3.642029E-03	2.468900E+02
-3.703731E-01	-3.642182E-03	2.473300E+02
-3.703884E-01	-3.642336E-03	2.477600E+02
-3.703884E-01	-3.642336E-03	2.482100E+02
-3.703884E-01	-3.642489E-03	2.486500E+02
-3.703961E-01	-3.642489E-03	2.491000E+02
-3.703884E-01	-3.642643E-03	2.499800E+02
-3.703808E-01	-3.642643E-03	2.504200E+02
-3.703654E-01	-3.642489E-03	2.508500E+02
-3.703808E-01	-3.642336E-03	2.513100E+02
-3.703654E-01	-3.642336E-03	2.517500E+02
-3.703731E-01	-3.642413E-03	2.522000E+02
-3.703884E-01	-3.642336E-03	2.526400E+02
-3.703961E-01	-3.642566E-03	2.530900E+02
-3.703884E-01	-3.642566E-03	2.535200E+02
-3.703961E-01	-3.642566E-03	2.539700E+02
-3.703884E-01	-3.642643E-03	2.544100E+02
-3.703884E-01	-3.642643E-03	2.548500E+02
-3.703961E-01	-3.642566E-03	2.553000E+02
-3.703884E-01	-3.642643E-03	2.557400E+02
-3.703654E-01	-3.642336E-03	2.561900E+02
-3.703731E-01	-3.642336E-03	2.566300E+02
-3.703731E-01	-3.642489E-03	2.570800E+02
-3.703731E-01	-3.642643E-03	2.575100E+02
-3.703884E-01	-3.642643E-03	2.579600E+02
-3.703884E-01	-3.642643E-03	2.584000E+02
-3.703884E-01	-3.642643E-03	2.588400E+02
-3.703884E-01	-3.642413E-03	2.597200E+02
-3.703884E-01	-3.642489E-03	2.601700E+02
-3.703884E-01	-3.642566E-03	2.606100E+02
-3.703884E-01	-3.642720E-03	2.610600E+02
-3.703884E-01	-3.642796E-03	2.615000E+02
-3.703884E-01	-3.642796E-03	2.619500E+02
-3.703961E-01	-3.642796E-03	2.623900E+02
-3.703884E-01	-3.642720E-03	2.628200E+02
-3.703961E-01	-3.642566E-03	2.632700E+02
-3.703884E-01	-3.642720E-03	2.637100E+02
-3.703884E-01	-3.642873E-03	2.641600E+02
-3.703808E-01	-3.642720E-03	2.646000E+02
-3.703731E-01	-3.642720E-03	2.650500E+02
-3.703808E-01	-3.642950E-03	2.654900E+02
-3.703578E-01	-3.643027E-03	2.659400E+02
-3.703578E-01	-3.643180E-03	2.663700E+02
-3.703654E-01	-3.643180E-03	2.668100E+02
-3.703808E-01	-3.643103E-03	2.672600E+02
-3.703731E-01	-3.643180E-03	2.677000E+02
-3.703731E-01	-3.643257E-03	2.681500E+02
-3.703654E-01	-3.643103E-03	2.685800E+02
-3.703578E-01	-3.642950E-03	2.690300E+02
-3.703731E-01	-3.643103E-03	2.699200E+02
-3.703731E-01	-3.643103E-03	2.703500E+02
-3.703654E-01	-3.642950E-03	2.708000E+02
-3.703654E-01	-3.642950E-03	2.712500E+02
-3.703654E-01	-3.643027E-03	2.716900E+02
-3.703578E-01	-3.642950E-03	2.721400E+02
-3.703731E-01	-3.643103E-03	2.725700E+02
-3.703731E-01	-3.643180E-03	2.730200E+02
-3.703731E-01	-3.643103E-03	2.734600E+02
-3.703654E-01	-3.643027E-03	2.739100E+02
-3.703808E-01	-3.642950E-03	2.743500E+02
-3.703884E-01	-3.642719E-03	2.747900E+02
-3.703884E-01	-3.642566E-03	2.752400E+02
-3.703884E-01	-3.642719E-03	2.756700E+02
-3.703884E-01	-3.642797E-03	2.761200E+02
-3.703884E-01	-3.642719E-03	2.765600E+02
-3.703884E-01	-3.642873E-03	2.770100E+02
-3.703884E-01	-3.642873E-03	2.774500E+02
-3.703884E-01	-3.642797E-03	2.779000E+02
-3.703884E-01	-3.642950E-03	2.783300E+02
-3.703884E-01	-3.642950E-03	2.787700E+02
-3.703808E-01	-3.642797E-03	2.796600E+02
-3.703884E-01	-3.642566E-03	2.801100E+02
-3.703884E-01	-3.642489E-03	2.805500E+02
-3.703884E-01	-3.642336E-03	2.810000E+02
-3.703808E-01	-3.642489E-03	2.814400E+02
-3.703731E-01	-3.642566E-03	2.818700E+02
-3.703731E-01	-3.642489E-03	2.823200E+02
-3.703654E-01	-3.642412E-03	2.827600E+02
-3.703654E-01	-3.642259E-03	2.832100E+02
-3.703578E-01	-3.642259E-03	2.836500E+02
-3.703654E-01	-3.642182E-03	2.841000E+02
-3.703731E-01	-3.642259E-03	2.845400E+02
-3.703731E-01	-3.642412E-03	2.849800E+02
-3.703808E-01	-3.642566E-03	2.854200E+02
-3.703654E-01	-3.642566E-03	2.858600E+02
-3.703654E-01	-3.642412E-03	2.863100E+02
-3.703731E-01	-3.642412E-03	2.867500E+02
-3.703731E-01	-3.642489E-03	2.872000E+02
-3.703731E-01	-3.642643E-03	2.876300E+02
-3.703808E-01	-3.642566E-03	2.880800E+02
-3.703808E-01	-3.642719E-03	2.885200E+02
-3.703654E-01	-3.642720E-03	2.889700E+02
-3.703578E-01	-3.642566E-03	2.898400E+02
-3.703731E-01	-3.642643E-03	2.902900E+02
-3.703808E-01	-3.642566E-03	2.907300E+02
-3.703731E-01	-3.642566E-03	2.911700E+02
-3.703654E-01	-3.642489E-03	2.916100E+02
-3.703731E-01	-3.642413E-03	2.920600E+02
-3.703808E-01	-3.642182E-03	2.925000E+02
-3.703884E-01	-3.642413E-03	2.929700E+02
-3.703961E-01	-3.642336E-03	2.934100E+02
-3.703884E-01	-3.642336E-03	2.938500E+02
-3.703884E-01	-3.642259E-03	2.943000E+02
-3.703884E-01	-3.642182E-03	2.947300E+02
-3.703808E-01	-3.642182E-03	2.951800E+02
-3.703884E-01	-3.642106E-03	2.956200E+02
-3.703884E-01	-3.642029E-03	2.960700E+02
-3.703731E-01	-3.642029E-03	2.965100E+02
-3.703654E-01	-3.642106E-03	2.969600E+02
-3.703578E-01	-3.642029E-03	2.974000E+02
-3.703578E-01	-3.642106E-03	2.978300E+02
-3.703731E-01	-3.642106E-03	2.982800E+02
-3.703808E-01	-3.641952E-03	2.987200E+02
-3.703884E-01	-3.641952E-03	2.996000E+02
-3.703884E-01	-3.641875E-03	3.000500E+02
-3.703884E-01	-3.642029E-03	3.004800E+02
-3.703961E-01	-3.641952E-03	3.009300E+02
-3.703884E-01	-3.641952E-03	3.013700E+02
-3.703884E-01	-3.641799E-03	3.018100E+02
-3.703731E-01	-3.641875E-03	3.022600E+02
-3.703731E-01	-3.641875E-03	3.027000E+02
-3.703578E-01	-3.641875E-03	3.031500E+02
-3.703731E-01	-3.641875E-03	3.035900E+02
-3.703731E-01	-3.641952E-03	3.040300E+02
-3.703654E-01	-3.641952E-03	3.044700E+02
-3.703884E-01	-3.642029E-03	3.049200E+02
-3.703884E-01	-3.641799E-03	3.053600E+02
-3.703884E-01	-3.641799E-03	3.058000E+02
-3.703808E-01	-3.641875E-03	3.062500E+02
-3.703578E-01	-3.641722E-03	3.066900E+02
-3.703731E-01	-3.641875E-03	3.071400E+02
-3.703961E-01	-3.641875E-03	3.075700E+02
-3.703884E-01	-3.641645E-03	3.080200E+02
-3.703884E-01	-3.641645E-03	3.084600E+02
-3.703884E-01	-3.641415E-03	3.089100E+02
-3.703654E-01	-3.641261E-03	3.097800E+02
-3.703654E-01	-3.641415E-03	3.102300E+02
-3.703654E-01	-3.641415E-03	3.106600E+02
-3.703654E-01	-3.641415E-03	3.111100E+02
-3.703654E-01	-3.641338E-03	3.115500E+02
-3.703884E-01	-3.641415E-03	3.120100E+02
-3.703961E-01	-3.641261E-03	3.124500E+02
-3.703961E-01	-3.641415E-03	3.129000E+02
-3.703884E-01	-3.641492E-03	3.133400E+02
-3.703884E-01	-3.641492E-03	3.137700E+02
-3.703654E-01	-3.641568E-03	3.142200E+02
-3.703731E-01	-3.641645E-03	3.146600E+02
-3.703884E-01	-3.641875E-03	3.151100E+02
-3.703884E-01	-3.641645E-03	3.155500E+02
-3.703961E-01	-3.641875E-03	3.160000E+02
-3.703961E-01	-3.641875E-03	3.164300E+02
-3.703884E-01	-3.641645E-03	3.168800E+02
-3.703731E-01	-3.641722E-03	3.173200E+02
-3.703808E-01	-3.641645E-03	3.177600E+02
-3.703654E-01	-3.641568E-03	3.182100E+02
-3.703731E-01	-3.641492E-03	3.186500E+02
-3.703808E-01	-3.641415E-03	3.191000E+02
-3.703884E-01	-3.641261E-03	3.199800E+02
-3.703808E-01	-3.641261E-03	3.204300E+02
-3.703654E-01	-3.641185E-03	3.208600E+02
-3.703808E-01	-3.641415E-03	3.213100E+02
-3.703884E-01	-3.641415E-03	3.217500E+02
-3.703884E-01	-3.641185E-03	3.222000E+02
-3.703884E-01	-3.641108E-03	3.226400E+02
-3.703731E-01	-3.641031E-03	3.230900E+02
-3.703731E-01	-3.641108E-03	3.235300E+02
-3.703654E-01	-3.640878E-03	3.239800E+02
-3.703654E-01	-3.640954E-03	3.244100E+02
-3.703884E-01	-3.641108E-03	3.248500E+02
-3.703961E-01	-3.640724E-03	3.253000E+02
-3.703884E-01	-3.640954E-03	3.257400E+02
-3.703654E-01	-3.640878E-03	3.261900E+02
-3.703808E-01	-3.640801E-03	3.266300E+02
-3.703884E-01	-3.640954E-03	3.270800E+02
-3.703961E-01	-3.640801E-03	3.275200E+02
-3.703654E-01	-3.640647E-03	3.279700E+02
-3.703654E-01	-3.640647E-03	3.284100E+02
-3.703501E-01	-3.641338E-03	3.288400E+02
-3.703731E-01	-3.641262E-03	3.297300E+02
-3.703808E-01	-3.641415E-03	3.301800E+02
-3.703808E-01	-3.641262E-03	3.306200E+02
-3.703577E-01	-3.641031E-03	3.310700E+02
-3.703808E-01	-3.641031E-03	3.315100E+02
-3.703808E-01	-3.640955E-03	3.319600E+02
-3.703808E-01	-3.641031E-03	3.324000E+02
-3.703577E-01	-3.640878E-03	3.328400E+02
-3.703577E-01	-3.640878E-03	3.332800E+02
-3.703577E-01	-3.640724E-03	3.337200E+02
-3.703654E-01	-3.640571E-03	3.341700E+02
-3.703731E-01	-3.640648E-03	3.346100E+02
-3.703731E-01	-3.640417E-03	3.350600E+02
-3.703808E-01	-3.640494E-03	3.355000E+02
-3.703577E-01	-3.640417E-03	3.359500E+02
-3.703808E-01	-3.640494E-03	3.363900E+02
-3.703808E-01	-3.640417E-03	3.368300E+02
-3.703884E-01	-3.640111E-03	3.372800E+02
-3.703884E-01	-3.640034E-03	3.377100E+02
-3.703501E-01	-3.639957E-03	3.381700E+02
-3.703424E-01	-3.640034E-03	3.386100E+02
-3.703578E-01	-3.639343E-03	3.390600E+02
-3.703808E-01	-3.639420E-03	3.399400E+02
-3.703961E-01	-3.639420E-03	3.403700E+02
-3.703884E-01	-3.639266E-03	3.408100E+02
-3.703654E-01	-3.639036E-03	3.412600E+02
-3.703884E-01	-3.639266E-03	3.417000E+02
-3.703884E-01	-3.639420E-03	3.421600E+02
-3.703884E-01	-3.639496E-03	3.426000E+02
-3.703731E-01	-3.639266E-03	3.430500E+02
-3.703578E-01	-3.639112E-03	3.434900E+02
-3.703578E-01	-3.639112E-03	3.439300E+02
-3.703578E-01	-3.639036E-03	3.443700E+02
-3.703731E-01	-3.639036E-03	3.448100E+02
-3.703961E-01	-3.639036E-03	3.452600E+02
-3.703731E-01	-3.638882E-03	3.457000E+02
-3.703884E-01	-3.638729E-03	3.461500E+02
-3.703884E-01	-3.638729E-03	3.465800E+02
-3.703884E-01	-3.638805E-03	3.470300E+02
-3.703654E-01	-3.638729E-03	3.474700E+02
-3.703578E-01	-3.638729E-03	3.479200E+02
-3.703654E-01	-3.638882E-03	3.483600E+02
-3.703884E-01	-3.639036E-03	3.488000E+02
-3.703808E-01	-3.638882E-03	3.496800E+02
-3.703884E-01	-3.638882E-03	3.501300E+02
-3.703808E-01	-3.638652E-03	3.505600E+02
-3.703578E-01	-3.638422E-03	3.510100E+02
-3.703654E-01	-3.638345E-03	3.514500E+02
-3.703731E-01	-3.638499E-03	3.519100E+02
-3.703884E-01	-3.638422E-03	3.523400E+02
-3.703808E-01	-3.638345E-03	3.527800E+02
-3.703731E-01	-3.638115E-03	3.532300E+02
-3.703961E-01	-3.638192E-03	3.536700E+02
-3.703884E-01	-3.638192E-03	3.541200E+02
-3.703731E-01	-3.638115E-03	3.545600E+02
-3.703654E-01	-3.638115E-03	3.550100E+02
-3.703578E-01	-3.637961E-03	3.554400E+02
-3.703578E-01	-3.637808E-03	3.558900E+02
-3.703731E-01	-3.638115E-03	3.563300E+02
-3.703884E-01	-3.638115E-03	3.567700E+02
-3.703884E-01	-3.637961E-03	3.572200E+02
-3.703808E-01	-3.637808E-03	3.576600E+02
-3.703808E-01	-3.637808E-03	3.581100E+02
-3.703884E-01	-3.637808E-03	3.585500E+02
-3.703884E-01	-3.637961E-03	3.589900E+02
-3.703884E-01	-3.637731E-03	3.598700E+02
-3.703578E-01	-3.637654E-03	3.603200E+02
-3.703578E-01	-3.637885E-03	3.607600E+02
-3.703578E-01	-3.637885E-03	3.612100E+02
-3.703578E-01	-3.637885E-03	3.616500E+02
-3.703731E-01	-3.637731E-03	3.620900E+02
-3.703884E-01	-3.637808E-03	3.625300E+02
-3.703884E-01	-3.637731E-03	3.629800E+02
-3.703961E-01	-3.637654E-03	3.634200E+02
-3.703884E-01	-3.637577E-03	3.638600E+02
-3.703731E-01	-3.637501E-03	3.643100E+02
-3.703731E-01	-3.637577E-03	3.647400E+02
-3.703808E-01	-3.637424E-03	3.651900E+02
-3.703884E-01	-3.637424E-03	3.656300E+02
-3.703961E-01	-3.637348E-03	3.660700E+02
-3.703961E-01	-3.637270E-03	3.665200E+02
-3.703884E-01	-3.637348E-03	3.669700E+02
-3.703884E-01	-3.637348E-03	3.674100E+02
-3.703884E-01	-3.637270E-03	3.678400E+02
-3.703884E-01	-3.637040E-03	3.682900E+02
-3.703884E-01	-3.637424E-03	3.687300E+02
-3.703884E-01	-3.637271E-03	3.696100E+02
-3.703884E-01	-3.637194E-03	3.700600E+02
-3.703884E-01	-3.636887E-03	3.705000E+02
-3.703884E-01	-3.636964E-03	3.709500E+02
-3.703961E-01	-3.636964E-03	3.713900E+02
-3.703884E-01	-3.636810E-03	3.718300E+02
-3.703884E-01	-3.636657E-03	3.722800E+02
-3.703808E-01	-3.636657E-03	3.727200E+02
-3.703961E-01	-3.636810E-03	3.731900E+02
-3.703884E-01	-3.636734E-03	3.736300E+02
-3.703884E-01	-3.636657E-03	3.740800E+02
-3.703884E-01	-3.636657E-03	3.745200E+02
-3.703884E-01	-3.636580E-03	3.749700E+02
-3.703884E-01	-3.636349E-03	3.754100E+02
-3.703808E-01	-3.636273E-03	3.758400E+02
-3.703884E-01	-3.636273E-03	3.762900E+02
-3.703884E-01	-3.636273E-03	3.767300E+02
-3.703961E-01	-3.636196E-03	3.771800E+02
-3.703884E-01	-3.636043E-03	3.776200E+02
-3.703884E-01	-3.636196E-03	3.780700E+02
-3.703884E-01	-3.636273E-03	3.785100E+02
-3.703884E-01	-3.635889E-03	3.789600E+02
-3.703961E-01	-3.635889E-03	3.798300E+02
-3.703961E-01	-3.635889E-03	3.802800E+02
-3.703884E-01	-3.635966E-03	3.807200E+02
-3.703884E-01	-3.635812E-03	3.811700E+02
-3.703884E-01	-3.635889E-03	3.816100E+02
-3.703884E-01	-3.635889E-03	3.820600E+02
-3.703961E-01	-3.635736E-03	3.824900E+02
-3.703884E-01	-3.635736E-03	3.829400E+02
-3.703884E-01	-3.635659E-03	3.833800E+02
-3.703961E-01	-3.635659E-03	3.838200E+02
-3.703884E-01	-3.635659E-03	3.842700E+02
-3.703884E-01	-3.635736E-03	3.847100E+02
-3.703884E-01	-3.635582E-03	3.851600E+02
-3.703884E-01	-3.635505E-03	3.855900E+02
-3.703884E-01	-3.635429E-03	3.860400E+02
-3.703884E-01	-3.635429E-03	3.864800E+02
-3.703961E-01	-3.635429E-03	3.869300E+02
-3.703884E-01	-3.635429E-03	3.873700E+02
-3.703884E-01	-3.635275E-03	3.878100E+02
-3.703884E-01	-3.634968E-03	3.882600E+02
-3.703884E-01	-3.634891E-03	3.887000E+02
-3.703808E-01	-3.634815E-03	3.895800E+02
-3.703884E-01	-3.634661E-03	3.900300E+02
-3.703731E-01	-3.634661E-03	3.904700E+02
-3.703731E-01	-3.634584E-03	3.909200E+02
-3.703654E-01	-3.634661E-03	3.913600E+02
-3.703731E-01	-3.634431E-03	3.918000E+02
-3.703808E-01	-3.634277E-03	3.922500E+02
-3.703961E-01	-3.634277E-03	3.926900E+02
-3.703884E-01	-3.634277E-03	3.931400E+02
-3.703884E-01	-3.634277E-03	3.935700E+02
-3.703884E-01	-3.634277E-03	3.940200E+02
-3.704115E-01	-3.634201E-03	3.944600E+02
-3.703961E-01	-3.634201E-03	3.949100E+02
-3.703884E-01	-3.634201E-03	3.953500E+02
-3.703808E-01	-3.634124E-03	3.957900E+02
-3.703654E-01	-3.634047E-03	3.962400E+02
-3.703578E-01	-3.634124E-03	3.966800E+02
-3.703578E-01	-3.634124E-03	3.971300E+02
-3.703578E-01	-3.634047E-03	3.975700E+02
-3.703501E-01	-3.634201E-03	3.980200E+02
-3.703578E-01	-3.634124E-03	3.984500E+02
-3.703578E-01	-3.634047E-03	3.989000E+02
-3.703501E-01	-3.633971E-03	3.997700E+02
-3.703501E-01	-3.634047E-03	4.002200E+02
-3.703578E-01	-3.633894E-03	4.006600E+02
-3.703501E-01	-3.633740E-03	4.011100E+02
-3.703501E-01	-3.634047E-03	4.015600E+02
-3.703808E-01	-3.634278E-03	4.020100E+02
-3.703884E-01	-3.634047E-03	4.024400E+02
-3.703808E-01	-3.633971E-03	4.028900E+02
-3.703884E-01	-3.633971E-03	4.033300E+02
-3.703808E-01	-3.633740E-03	4.037700E+02
-3.703808E-01	-3.633817E-03	4.042200E+02
-3.703961E-01	-3.633740E-03	4.046600E+02
-3.704038E-01	-3.633664E-03	4.051100E+02
-3.703961E-01	-3.633664E-03	4.055400E+02
-3.703654E-01	-3.633280E-03	4.059900E+02
-3.703578E-01	-3.633280E-03	4.064300E+02
-3.703578E-01	-3.633433E-03	4.068700E+02
-3.703578E-01	-3.633510E-03	4.073200E+02
-3.703654E-01	-3.633280E-03	4.077600E+02
-3.703578E-01	-3.633203E-03	4.082100E+02
-3.703578E-01	-3.633203E-03	4.086500E+02
-3.703501E-01	-3.632973E-03	4.090900E+02
-3.703578E-01	-3.632742E-03	4.099800E+02
-3.703654E-01	-3.632819E-03	4.104200E+02
-3.703731E-01	-3.632896E-03	4.108600E+02
-3.703808E-01	-3.632742E-03	4.113100E+02
-3.703884E-01	-3.632896E-03	4.117500E+02
-3.703884E-01	-3.632896E-03	4.121900E+02
-3.703884E-01	-3.632973E-03	4.126300E+02
-3.703884E-01	-3.632973E-03	4.130800E+02
-3.703884E-01	-3.632973E-03	4.135200E+02
-3.703884E-01	-3.632896E-03	4.139700E+02
-3.703884E-01	-3.632896E-03	4.144100E+02
-3.703884E-01	-3.632819E-03	4.148500E+02
-3.703654E-01	-3.632589E-03	4.152900E+02
-3.703884E-01	-3.632819E-03	4.157300E+02
-3.703961E-01	-3.632819E-03	4.161800E+02
-3.703961E-01	-3.632666E-03	4.166200E+02
-3.704038E-01	-3.632589E-03	4.170700E+02
-3.704038E-01	-3.632666E-03	4.175100E+02
-3.704115E-01	-3.632819E-03	4.179700E+02
-3.703961E-01	-3.632742E-03	4.184000E+02
-3.703808E-01	-3.632589E-03	4.188400E+02
-3.703578E-01	-3.632206E-03	4.197200E+02
-3.703501E-01	-3.632052E-03	4.201700E+02
-3.703501E-01	-3.631975E-03	4.206100E+02
-3.703578E-01	-3.631975E-03	4.210700E+02
-3.703501E-01	-3.632052E-03	4.215000E+02
-3.703578E-01	-3.632052E-03	4.219500E+02
-3.703578E-01	-3.631975E-03	4.223900E+02
-3.703501E-01	-3.631898E-03	4.228200E+02
-3.703501E-01	-3.631898E-03	4.232700E+02
-3.703578E-01	-3.631898E-03	4.237100E+02
-3.703501E-01	-3.631898E-03	4.241600E+02
-3.703578E-01	-3.631668E-03	4.246000E+02
-3.703501E-01	-3.631591E-03	4.250500E+02
-3.703501E-01	-3.631668E-03	4.254800E+02
-3.703578E-01	-3.631591E-03	4.259400E+02
-3.703578E-01	-3.631591E-03	4.263700E+02
-3.703501E-01	-3.631438E-03	4.268100E+02
-3.703578E-01	-3.631361E-03	4.272600E+02
-3.703578E-01	-3.631284E-03	4.277000E+02
-3.703578E-01	-3.631208E-03	4.281500E+02
-3.703654E-01	-3.631361E-03	4.285800E+02
-3.703654E-01	-3.632129E-03	4.290300E+02
-3.703577E-01	-3.631899E-03	4.299300E+02
-3.703654E-01	-3.631745E-03	4.303700E+02
-3.703654E-01	-3.631668E-03	4.308100E+02
-3.703654E-01	-3.631592E-03	4.312600E+02
-3.703654E-01	-3.631822E-03	4.317000E+02
-3.703654E-01	-3.631668E-03	4.321400E+02
-3.703654E-01	-3.631438E-03	4.325800E+02
-3.703654E-01	-3.631284E-03	4.330300E+02
-3.703654E-01	-3.631284E-03	4.334700E+02
-3.703654E-01	-3.631131E-03	4.339200E+02
-3.703654E-01	-3.630901E-03	4.343600E+02
-3.703808E-01	-3.631054E-03	4.347900E+02
-3.703808E-01	-3.630978E-03	4.352400E+02
-3.703961E-01	-3.630978E-03	4.356800E+02
-3.703961E-01	-3.630978E-03	4.361300E+02
-3.703961E-01	-3.630901E-03	4.365700E+02
-3.703961E-01	-3.630748E-03	4.370200E+02
-3.703961E-01	-3.630594E-03	4.374500E+02
-3.703884E-01	-3.630748E-03	4.379000E+02
-3.703884E-01	-3.630594E-03	4.383400E+02
-3.703884E-01	-3.629826E-03	4.387800E+02
-3.703884E-01	-3.629749E-03	4.396600E+02
-3.704038E-01	-3.629826E-03	4.401000E+02
-3.704115E-01	-3.629903E-03	4.405400E+02
-3.704191E-01	-3.629749E-03	4.409900E+02
-3.704191E-01	-3.629826E-03	4.414300E+02
-3.704191E-01	-3.629749E-03	4.418700E+02
-3.704191E-01	-3.629596E-03	4.423200E+02
-3.704191E-01	-3.629596E-03	4.427500E+02
-3.704191E-01	-3.629442E-03	4.432000E+02
-3.704038E-01	-3.629212E-03	4.436400E+02
-3.703808E-01	-3.629135E-03	4.440900E+02
-3.703731E-01	-3.629059E-03	4.445300E+02
-3.703808E-01	-3.629135E-03	4.449800E+02
-3.703654E-01	-3.629135E-03	4.454200E+02
-3.703501E-01	-3.629059E-03	4.458500E+02
-3.703501E-01	-3.628982E-03	4.463000E+02
-3.703578E-01	-3.628982E-03	4.467400E+02
-3.703501E-01	-3.628829E-03	4.471900E+02
-3.703501E-01	-3.628675E-03	4.476300E+02
-3.703501E-01	-3.628598E-03	4.480800E+02
-3.703501E-01	-3.628598E-03	4.485200E+02
-3.703501E-01	-3.628522E-03	4.489700E+02
-3.703501E-01	-3.628522E-03	4.498400E+02
-3.703578E-01	-3.628598E-03	4.502900E+02
-3.703578E-01	-3.628522E-03	4.507300E+02
-3.703501E-01	-3.628445E-03	4.511800E+02
-3.703578E-01	-3.628215E-03	4.516200E+02
-3.703501E-01	-3.628215E-03	4.520700E+02
-3.703578E-01	-3.628215E-03	4.525100E+02
-3.703501E-01	-3.628215E-03	4.529800E+02
-3.703578E-01	-3.628215E-03	4.534200E+02
-3.703578E-01	-3.628215E-03	4.538600E+02
-3.703578E-01	-3.628138E-03	4.543000E+02
-3.703578E-01	-3.628061E-03	4.547400E+02
-3.703578E-01	-3.627984E-03	4.551900E+02
-3.703578E-01	-3.627831E-03	4.556300E+02
-3.703578E-01	-3.627831E-03	4.560800E+02
-3.703578E-01	-3.627754E-03	4.565200E+02
-3.703578E-01	-3.627754E-03	4.569700E+02
-3.703578E-01	-3.627984E-03	4.574100E+02
-3.703578E-01	-3.627754E-03	4.578500E+02
-3.703731E-01	-3.627601E-03	4.583000E+02
-3.703884E-01	-3.628291E-03	4.587300E+02
-3.703808E-01	-3.628062E-03	4.596300E+02
-3.703808E-01	-3.628138E-03	4.600800E+02
-3.703808E-01	-3.628138E-03	4.605200E+02
-3.704038E-01	-3.628291E-03	4.609700E+02
-3.704268E-01	-3.628368E-03	4.614000E+02
-3.704191E-01	-3.628215E-03	4.618400E+02
-3.703884E-01	-3.628291E-03	4.622900E+02
-3.703577E-01	-3.628138E-03	4.627300E+02
-3.703424E-01	-3.628062E-03	4.631800E+02
-3.703501E-01	-3.627908E-03	4.636200E+02
-3.703501E-01	-3.627831E-03	4.640700E+02
-3.703501E-01	-3.627677E-03	4.645100E+02
-3.703501E-01	-3.627831E-03	4.649500E+02
-3.703501E-01	-3.627755E-03	4.653900E+02
-3.703501E-01	-3.627677E-03	4.658300E+02
-3.703501E-01	-3.627524E-03	4.662800E+02
-3.703424E-01	-3.627447E-03	4.667200E+02
-3.703501E-01	-3.627601E-03	4.671700E+02
-3.703577E-01	-3.627677E-03	4.676000E+02
-3.703808E-01	-3.627677E-03	4.680500E+02
-3.703884E-01	-3.627755E-03	4.684900E+02
-3.703884E-01	-3.627601E-03	4.689400E+02
-3.703808E-01	-3.627371E-03	4.698100E+02
-3.703808E-01	-3.627447E-03	4.702600E+02
-3.704115E-01	-3.627524E-03	4.707000E+02
-3.704115E-01	-3.627524E-03	4.711500E+02
-3.704191E-01	-3.627601E-03	4.715800E+02
-3.704191E-01	-3.627447E-03	4.720300E+02
-3.704115E-01	-3.627524E-03	4.724800E+02
-3.704115E-01	-3.627524E-03	4.729300E+02
-3.703808E-01	-3.627371E-03	4.733700E+02
-3.703731E-01	-3.627140E-03	4.738000E+02
-3.703577E-01	-3.627063E-03	4.742500E+02
-3.703501E-01	-3.626987E-03	4.746900E+02
-3.703424E-01	-3.626987E-03	4.751400E+02
-3.703501E-01	-3.627140E-03	4.755800E+02
-3.703501E-01	-3.626910E-03	4.760300E+02
-3.703501E-01	-3.626833E-03	4.764700E+02
-3.703577E-01	-3.626833E-03	4.769200E+02
-3.703501E-01	-3.626680E-03	4.773600E+02
-3.703501E-01	-3.626603E-03	4.777900E+02
-3.703501E-01	-3.626680E-03	4.782400E+02
-3.703501E-01	-3.625912E-03	4.786800E+02
-3.703501E-01	-3.625836E-03	4.795600E+02
-3.703501E-01	-3.625836E-03	4.800100E+02
-3.703577E-01	-3.625912E-03	4.804500E+02
-3.703731E-01	-3.626065E-03	4.809000E+02
-3.703808E-01	-3.626065E-03	4.813300E+02
-3.703961E-01	-3.625912E-03	4.817700E+02
-3.703884E-01	-3.625912E-03	4.822300E+02
-3.704268E-01	-3.625989E-03	4.826600E+02
-3.704268E-01	-3.625989E-03	4.831100E+02
-3.703884E-01	-3.625836E-03	4.835500E+02
-3.703501E-01	-3.625836E-03	4.840000E+02
-3.703501E-01	-3.625836E-03	4.844300E+02
-3.703577E-01	-3.625682E-03	4.848700E+02
-3.703501E-01	-3.625528E-03	4.853200E+02
-3.703577E-01	-3.625375E-03	4.857600E+02
-3.703501E-01	-3.625298E-03	4.862100E+02
-3.703654E-01	-3.625375E-03	4.866500E+02
-3.703808E-01	-3.625298E-03	4.871000E+02
-3.703961E-01	-3.625375E-03	4.875300E+02
-3.704115E-01	-3.625605E-03	4.879800E+02
-3.704345E-01	-3.625452E-03	4.884200E+02
-3.704038E-01	-3.625682E-03	4.888600E+02
-3.703424E-01	-3.625221E-03	4.897500E+02
-3.703501E-01	-3.625298E-03	4.902000E+02
-3.703501E-01	-3.625068E-03	4.906300E+02
-3.703501E-01	-3.625145E-03	4.910900E+02
-3.703501E-01	-3.624991E-03	4.915300E+02
-3.703424E-01	-3.624838E-03	4.919800E+02
-3.703501E-01	-3.624761E-03	4.924200E+02
-3.703654E-01	-3.624914E-03	4.928500E+02
-3.703808E-01	-3.624761E-03	4.933000E+02
-3.703884E-01	-3.624607E-03	4.937400E+02
-3.703961E-01	-3.624531E-03	4.941900E+02
-3.704345E-01	-3.624914E-03	4.946300E+02
-3.704345E-01	-3.624838E-03	4.950800E+02
-3.704115E-01	-3.624607E-03	4.955200E+02
-3.703577E-01	-3.624377E-03	4.959700E+02
-3.703424E-01	-3.624147E-03	4.964000E+02
-3.703501E-01	-3.624300E-03	4.968400E+02
-3.703501E-01	-3.624070E-03	4.972900E+02
-3.703501E-01	-3.623917E-03	4.977300E+02
-3.703501E-01	-3.623917E-03	4.981800E+02
-3.703577E-01	-3.623917E-03	4.986200E+02
-3.703884E-01	-3.623917E-03	4.990700E+02
-3.704422E-01	-3.623917E-03	4.999600E+02
-3.704345E-01	-3.624070E-03	5.003900E+02
-3.703654E-01	-3.623686E-03	5.008300E+02
-3.703578E-01	-3.623533E-03	5.012800E+02
-3.703501E-01	-3.623456E-03	5.017300E+02
-3.703578E-01	-3.623610E-03	5.021800E+02
-3.703654E-01	-3.623379E-03	5.026200E+02
-3.703884E-01	-3.623456E-03	5.030600E+02
-3.704115E-01	-3.623763E-03	5.035000E+02
-3.704422E-01	-3.623840E-03	5.039500E+02
-3.704038E-01	-3.623840E-03	5.043900E+02
-3.703578E-01	-3.623379E-03	5.048300E+02
-3.703578E-01	-3.623456E-03	5.052800E+02
-3.703578E-01	-3.623303E-03	5.057100E+02
-3.703654E-01	-3.623073E-03	5.061600E+02
-3.703884E-01	-3.623226E-03	5.066000E+02
-3.703961E-01	-3.623303E-03	5.070500E+02
-3.704345E-01	-3.623533E-03	5.074900E+02
-3.704191E-01	-3.623303E-03	5.079400E+02
-3.703578E-01	-3.623073E-03	5.083800E+02
-3.703578E-01	-3.623686E-03	5.088200E+02
-3.703578E-01	-3.623380E-03	5.097000E+02
-3.703961E-01	-3.623610E-03	5.101500E+02
-3.704345E-01	-3.623610E-03	5.105900E+02
-3.704268E-01	-3.623533E-03	5.110400E+02
-3.703654E-01	-3.623226E-03	5.114800E+02
-3.703578E-01	-3.623226E-03	5.119300E+02
-3.703578E-01	-3.622996E-03	5.123700E+02
-3.703578E-01	-3.622766E-03	5.128100E+02
-3.703884E-01	-3.622996E-03	5.132500E+02
-3.704191E-01	-3.623073E-03	5.136900E+02
-3.704498E-01	-3.623150E-03	5.141400E+02
-3.703884E-01	-3.622920E-03	5.145800E+02
-3.703578E-01	-3.622689E-03	5.150300E+02
-3.703578E-01	-3.622459E-03	5.154700E+02
-3.703578E-01	-3.622459E-03	5.159100E+02
-3.703578E-01	-3.622612E-03	5.163500E+02
-3.703884E-01	-3.622842E-03	5.167900E+02
-3.704268E-01	-3.623073E-03	5.172400E+02
-3.704345E-01	-3.622996E-03	5.176800E+02
-3.703808E-01	-3.622766E-03	5.181300E+02
-3.703578E-01	-3.622382E-03	5.185700E+02
-3.703578E-01	-3.621614E-03	5.190200E+02
-3.703808E-01	-3.621538E-03	5.199000E+02
-3.704115E-01	-3.621614E-03	5.203400E+02
-3.704498E-01	-3.621845E-03	5.207800E+02
-3.704038E-01	-3.621614E-03	5.212300E+02
-3.703578E-01	-3.621308E-03	5.216700E+02
-3.703578E-01	-3.621461E-03	5.221300E+02
-3.703578E-01	-3.621308E-03	5.225600E+02
-3.703578E-01	-3.620923E-03	5.230100E+02
-3.703961E-01	-3.621077E-03	5.234500E+02
-3.704498E-01	-3.621308E-03	5.239000E+02
-3.704422E-01	-3.621308E-03	5.243400E+02
-3.703884E-01	-3.621231E-03	5.247800E+02
-3.703578E-01	-3.621077E-03	5.252300E+02
-3.703501E-01	-3.620923E-03	5.256700E+02
-3.703578E-01	-3.620770E-03	5.261100E+02
-3.703731E-01	-3.620847E-03	5.265500E+02
-3.704115E-01	-3.621001E-03	5.270000E+02
-3.704498E-01	-3.621001E-03	5.274400E+02
-3.704038E-01	-3.620847E-03	5.278900E+02
-3.703578E-01	-3.620693E-03	5.283300E+02
-3.703578E-01	-3.621461E-03	5.287600E+02
-3.703731E-01	-3.621231E-03	5.296500E+02
-3.704038E-01	-3.621308E-03	5.301000E+02
-3.704498E-01	-3.621538E-03	5.305400E+02
-3.704191E-01	-3.621385E-03	5.309900E+02
-3.703578E-01	-3.621001E-03	5.314300E+02
-3.703654E-01	-3.621154E-03	5.318700E+02
-3.703578E-01	-3.621077E-03	5.323200E+02
-3.703731E-01	-3.620924E-03	5.327600E+02
-3.704115E-01	-3.621001E-03	5.332300E+02
-3.704498E-01	-3.621001E-03	5.336700E+02
-3.704268E-01	-3.620847E-03	5.341100E+02
-3.703731E-01	-3.620770E-03	5.345500E+02
-3.703578E-01	-3.620617E-03	5.350000E+02
-3.703578E-01	-3.620540E-03	5.354400E+02
-3.703654E-01	-3.620387E-03	5.358900E+02
-3.703808E-01	-3.620387E-03	5.363300E+02
-3.704115E-01	-3.620693E-03	5.367600E+02
-3.704498E-01	-3.620770E-03	5.372100E+02
-3.704191E-01	-3.620693E-03	5.376500E+02
-3.703654E-01	-3.620463E-03	5.381000E+02
-3.703578E-01	-3.620233E-03	5.385400E+02
-3.703578E-01	-3.619773E-03	5.389900E+02
-3.703884E-01	-3.619696E-03	5.398500E+02
-3.704115E-01	-3.619926E-03	5.403000E+02
-3.704498E-01	-3.619926E-03	5.407400E+02
-3.704115E-01	-3.620003E-03	5.411900E+02
-3.703578E-01	-3.619696E-03	5.416300E+02
-3.703578E-01	-3.619619E-03	5.420800E+02
-3.703578E-01	-3.619466E-03	5.425200E+02
-3.703578E-01	-3.619389E-03	5.429700E+02
-3.703884E-01	-3.619696E-03	5.434100E+02
-3.704345E-01	-3.619926E-03	5.438500E+02
-3.704345E-01	-3.619849E-03	5.443000E+02
-3.703884E-01	-3.619389E-03	5.447400E+02
-3.703578E-01	-3.619159E-03	5.451900E+02
-3.703501E-01	-3.619159E-03	5.456300E+02
-3.703578E-01	-3.619082E-03	5.460800E+02
-3.703654E-01	-3.619005E-03	5.465100E+02
-3.704115E-01	-3.619312E-03	5.469600E+02
-3.704498E-01	-3.619389E-03	5.474000E+02
-3.704268E-01	-3.619696E-03	5.478400E+02
-3.703808E-01	-3.619619E-03	5.482900E+02
-3.703578E-01	-3.619235E-03	5.487200E+02
-3.703578E-01	-3.619312E-03	5.496000E+02
-3.703808E-01	-3.619466E-03	5.500500E+02
-3.704115E-01	-3.619389E-03	5.504900E+02
-3.704422E-01	-3.619389E-03	5.509400E+02
-3.704191E-01	-3.619158E-03	5.513800E+02
-3.703808E-01	-3.619158E-03	5.518200E+02
-3.703578E-01	-3.619005E-03	5.522600E+02
-3.703501E-01	-3.618852E-03	5.527000E+02
-3.703578E-01	-3.618698E-03	5.531500E+02
-3.703808E-01	-3.618468E-03	5.535900E+02
-3.704038E-01	-3.618775E-03	5.540400E+02
-3.704422E-01	-3.619082E-03	5.544800E+02
-3.704115E-01	-3.619082E-03	5.549300E+02
-3.703578E-01	-3.618852E-03	5.553700E+02
-3.703578E-01	-3.618698E-03	5.558000E+02
-3.703578E-01	-3.618698E-03	5.562600E+02
-3.703578E-01	-3.618698E-03	5.566900E+02
-3.703961E-01	-3.618775E-03	5.571500E+02
-3.704422E-01	-3.618621E-03	5.575900E+02
-3.704345E-01	-3.618544E-03	5.580400E+02
-3.703731E-01	-3.618468E-03	5.584800E+02
-3.703501E-01	-3.619082E-03	5.589300E+02
-3.703424E-01	-3.618775E-03	5.598100E+02
-3.703808E-01	-3.618775E-03	5.602500E+02
-3.704191E-01	-3.619005E-03	5.606900E+02
-3.704345E-01	-3.619005E-03	5.611500E+02
-3.704038E-01	-3.618775E-03	5.615900E+02
-3.703577E-01	-3.618698E-03	5.620400E+02
-3.703501E-01	-3.618468E-03	5.624800E+02
-3.703501E-01	-3.618391E-03	5.629300E+02
-3.703501E-01	-3.618161E-03	5.633700E+02
-3.703577E-01	-3.618315E-03	5.638000E+02
-3.704038E-01	-3.618315E-03	5.642500E+02
-3.704268E-01	-3.618391E-03	5.646900E+02
-3.704191E-01	-3.618161E-03	5.651400E+02
-3.703808E-01	-3.617931E-03	5.655800E+02
-3.703501E-01	-3.617777E-03	5.660300E+02
-3.703501E-01	-3.617931E-03	5.664700E+02
-3.703501E-01	-3.617777E-03	5.669200E+02
-3.703577E-01	-3.617777E-03	5.673600E+02
-3.704038E-01	-3.618008E-03	5.677900E+02
-3.704345E-01	-3.618084E-03	5.682400E+02
-3.704191E-01	-3.617393E-03	5.686800E+02
-3.703501E-01	-3.617009E-03	5.695600E+02
-3.703501E-01	-3.616856E-03	5.700100E+02
-3.703501E-01	-3.616856E-03	5.704500E+02
-3.703731E-01	-3.616856E-03	5.709000E+02
-3.704115E-01	-3.616856E-03	5.713400E+02
-3.704345E-01	-3.617086E-03	5.717800E+02
-3.703808E-01	-3.616933E-03	5.722300E+02
-3.703501E-01	-3.616396E-03	5.726700E+02
-3.703501E-01	-3.616319E-03	5.731100E+02
-3.703577E-01	-3.616165E-03	5.735500E+02
-3.704115E-01	-3.616549E-03	5.740000E+02
-3.704268E-01	-3.616703E-03	5.744400E+02
-3.703884E-01	-3.616549E-03	5.748900E+02
-3.703501E-01	-3.616089E-03	5.753300E+02
-3.703577E-01	-3.616165E-03	5.757700E+02
-3.703501E-01	-3.616089E-03	5.762100E+02
-3.703961E-01	-3.616396E-03	5.766600E+02
-3.704422E-01	-3.616396E-03	5.771100E+02
-3.704115E-01	-3.616396E-03	5.775400E+02
-3.703577E-01	-3.616242E-03	5.779900E+02
-3.703501E-01	-3.616242E-03	5.784300E+02
-3.703654E-01	-3.616242E-03	5.788700E+02
-3.704191E-01	-3.616472E-03	5.797500E+02
-3.704268E-01	-3.616549E-03	5.802000E+02
-3.703884E-01	-3.616089E-03	5.806400E+02
-3.703578E-01	-3.615782E-03	5.810900E+02
-3.703578E-01	-3.616012E-03	5.815400E+02
-3.703654E-01	-3.615782E-03	5.819900E+02
-3.704038E-01	-3.615935E-03	5.824300E+02
-3.704422E-01	-3.616165E-03	5.828600E+02
-3.704191E-01	-3.615705E-03	5.833100E+02
-3.703884E-01	-3.615628E-03	5.837500E+02
-3.703501E-01	-3.615398E-03	5.842000E+02
-3.703578E-01	-3.615244E-03	5.846400E+02
-3.703578E-01	-3.614937E-03	5.850900E+02
-3.703961E-01	-3.615091E-03	5.855200E+02
-3.704268E-01	-3.615168E-03	5.859700E+02
-3.704498E-01	-3.615244E-03	5.864100E+02
-3.704191E-01	-3.615475E-03	5.868400E+02
-3.703731E-01	-3.615321E-03	5.873000E+02
-3.703578E-01	-3.614861E-03	5.877400E+02
-3.703578E-01	-3.614784E-03	5.881900E+02
-3.703578E-01	-3.614554E-03	5.886200E+02
-3.703577E-01	-3.614323E-03	5.890700E+02
-3.704191E-01	-3.614554E-03	5.899500E+02
-3.704422E-01	-3.614707E-03	5.903900E+02
-3.704115E-01	-3.614631E-03	5.908300E+02
-3.703808E-01	-3.614400E-03	5.912900E+02
-3.703501E-01	-3.614247E-03	5.917200E+02
-3.703424E-01	-3.613710E-03	5.921700E+02
-3.703501E-01	-3.613863E-03	5.926100E+02
-3.703501E-01	-3.613786E-03	5.930600E+02
-3.703808E-01	-3.613863E-03	5.934900E+02
-3.704038E-01	-3.613863E-03	5.939400E+02
-3.704268E-01	-3.613863E-03	5.943800E+02
-3.704345E-01	-3.613940E-03	5.948200E+02
-3.704038E-01	-3.613863E-03	5.952700E+02
-3.703808E-01	-3.613710E-03	5.957000E+02
-3.703577E-01	-3.613479E-03	5.961500E+02
-3.703501E-01	-3.613479E-03	5.965900E+02
-3.703501E-01	-3.613479E-03	5.970500E+02
