CORRW ASCII
  CorrWare for Windows: Version 3.5f
  Potentiostatic	[-0.37 Ref,50 Hour][default]	bias_-370mV_9.cor
  Date: 11-05-2019    Time: 23:14:56
   
   
  Open Circuit Potential (V): 0.0032
  Begin Information:          Cell Information
    Surface Area:             1
    Density:                  0
    Weight:                   0
    Polarity:                 0
    PolarityI:                0
    Corrosion Unit Type:      0
    Reference Type:           0
    Reference Potential:      0
    User-Defined Potential:   0
    Stern-Geary:              26
  End Information:            Cell Information
  Begin Pstat:                1287
    Pstat Title:              Instrument #1
    Booster Type:             0
    Booster Name:             None
    Current Range:            0
    Current Limit:            0
    Current LimitType:        0
    Sweep Type:               0
    Use Error Beep:           1
    Auxilary Type:            0
    iR Comp. Type:            0
    iR Ohms:                  0
    iR Time:                  27
    iR Ratio:                 255
    LP Filter Type:           2
    Drift Correction:         1
    Null Correction:          0
    Pstat Bandwidth Type:     2
    Gstat Bandwidth Type:     2
    External Input:           0
    SafetyMinV:               0
    SafetyMaxV:               10
    SafetyMinI:               0
    SafetyMaxI:               4
    SafetyMinQ:               0
    SafetyMaxQ:               1000
    SafetyMinT:               0
    SafetyMaxT:               50
    SafetyChT:                0
    SafetyMinVUse:            0
    SafetyMaxVUse:            0
    SafetyMinIUse:            0
    SafetyMaxIUse:            0
    SafetyMinQUse:            0
    SafetyMaxQUse:            0
    SafetyMinTUse:            0
    SafetyMaxTUse:            0
  End Pstat:                  1287
  Begin Experiment:           Potentiostatic	[-0.37 Ref,50 Hour][default]	bias_-370mV_9.cor
    Data File:                Z:\191101_Amezawa\fr_XAS\DPB2\700C_100%O2\Electrochem\bias_-370mV_9.cor
    Data Append:              0
    Comment Lines:            0
    Potential:                -0.37
    Potential Type:           1
    Total Time:               50
    Time Units:               2
    Time Marker:              -1
    Measure Rate Type:        1
    Measure Rate #1:          2000
    Measure Rate #2:          10
    Measure Rate #3:          0.1
    Measure Rate #4:          2
    Use Threshold:            0
    Threshold I_Min:          -15
    Threshold I_Max:          15
    Threshold Delta:          5
    Threshold Time:           60
    Copy AuxV:                0
    Axes Type:                1
    Use Custom Pstat:         0
  End Experiment:             Potentiostatic	[-0.37 Ref,50 Hour][default]	bias_-370mV_9.cor
  Data Points:                474
  E(Volts)	I(A/cm2)	T(Seconds)
End Comments
-3.905939E-01	-3.220923E-03	0.000000E+00
-3.703654E-01	-2.938957E-03	9.100000E-01
-3.703578E-01	-2.978942E-03	1.370000E+00
-3.703578E-01	-3.009410E-03	1.820000E+00
-3.703578E-01	-3.030439E-03	2.260000E+00
-3.703578E-01	-3.045251E-03	2.700000E+00
-3.703578E-01	-3.055535E-03	3.150000E+00
-3.703578E-01	-3.062135E-03	3.590000E+00
-3.703578E-01	-3.067277E-03	4.030000E+00
-3.703578E-01	-3.070807E-03	4.470000E+00
-3.703578E-01	-3.073647E-03	4.920000E+00
-3.703578E-01	-3.075796E-03	5.360000E+00
-3.703501E-01	-3.077637E-03	5.810000E+00
-3.703501E-01	-3.079096E-03	6.250000E+00
-3.703501E-01	-3.080554E-03	6.690000E+00
-3.703501E-01	-3.082012E-03	7.130000E+00
-3.703501E-01	-3.083240E-03	7.570000E+00
-3.703578E-01	-3.084391E-03	8.020000E+00
-3.703501E-01	-3.085619E-03	8.460000E+00
-3.703501E-01	-3.086309E-03	8.910000E+00
-3.703501E-01	-3.088766E-03	9.790000E+00
-3.703501E-01	-3.089763E-03	1.023000E+01
-3.703501E-01	-3.090838E-03	1.067000E+01
-3.703501E-01	-3.091989E-03	1.112000E+01
-3.703501E-01	-3.093294E-03	1.156000E+01
-3.703578E-01	-3.094675E-03	1.201000E+01
-3.703501E-01	-3.095827E-03	1.245000E+01
-3.703578E-01	-3.097054E-03	1.290000E+01
-3.703578E-01	-3.098052E-03	1.333000E+01
-3.703501E-01	-3.099049E-03	1.378000E+01
-3.703578E-01	-3.100354E-03	1.422000E+01
-3.703501E-01	-3.101506E-03	1.466000E+01
-3.703501E-01	-3.102734E-03	1.511000E+01
-3.703501E-01	-3.103808E-03	1.554000E+01
-3.703501E-01	-3.104729E-03	1.599000E+01
-3.703501E-01	-3.105726E-03	1.643000E+01
-3.703501E-01	-3.106877E-03	1.688000E+01
-3.703501E-01	-3.107876E-03	1.731000E+01
-3.703501E-01	-3.108950E-03	1.776000E+01
-3.703501E-01	-3.110101E-03	1.821000E+01
-3.703577E-01	-3.111406E-03	1.864000E+01
-3.703577E-01	-3.113478E-03	1.953000E+01
-3.703577E-01	-3.114706E-03	1.998000E+01
-3.703577E-01	-3.115550E-03	2.041000E+01
-3.703577E-01	-3.116778E-03	2.086000E+01
-3.703654E-01	-3.117776E-03	2.130000E+01
-3.703654E-01	-3.118697E-03	2.175000E+01
-3.703577E-01	-3.119925E-03	2.219000E+01
-3.703577E-01	-3.121152E-03	2.263000E+01
-3.703577E-01	-3.121997E-03	2.308000E+01
-3.703577E-01	-3.123148E-03	2.351000E+01
-3.703501E-01	-3.124146E-03	2.396000E+01
-3.703501E-01	-3.125450E-03	2.440000E+01
-3.703501E-01	-3.126448E-03	2.485000E+01
-3.703501E-01	-3.127599E-03	2.529000E+01
-3.703577E-01	-3.128597E-03	2.574000E+01
-3.703577E-01	-3.129441E-03	2.617000E+01
-3.703654E-01	-3.130439E-03	2.661000E+01
-3.703577E-01	-3.131744E-03	2.707000E+01
-3.703577E-01	-3.132895E-03	2.751000E+01
-3.703577E-01	-3.133969E-03	2.796000E+01
-3.703577E-01	-3.134967E-03	2.839000E+01
-3.703501E-01	-3.135965E-03	2.884000E+01
-3.703577E-01	-3.138037E-03	2.971000E+01
-3.703501E-01	-3.139188E-03	3.016000E+01
-3.703501E-01	-3.140032E-03	3.060000E+01
-3.703501E-01	-3.141183E-03	3.106000E+01
-3.703501E-01	-3.142027E-03	3.149000E+01
-3.703501E-01	-3.143102E-03	3.194000E+01
-3.703577E-01	-3.144100E-03	3.238000E+01
-3.703577E-01	-3.145251E-03	3.283000E+01
-3.703577E-01	-3.146249E-03	3.327000E+01
-3.703577E-01	-3.147093E-03	3.371000E+01
-3.703577E-01	-3.148014E-03	3.416000E+01
-3.703577E-01	-3.149088E-03	3.459000E+01
-3.703577E-01	-3.150086E-03	3.504000E+01
-3.703501E-01	-3.150930E-03	3.548000E+01
-3.703501E-01	-3.151928E-03	3.593000E+01
-3.703577E-01	-3.152772E-03	3.637000E+01
-3.703501E-01	-3.153846E-03	3.682000E+01
-3.703577E-01	-3.154921E-03	3.726000E+01
-3.703501E-01	-3.155612E-03	3.770000E+01
-3.703654E-01	-3.156839E-03	3.815000E+01
-3.703577E-01	-3.158068E-03	3.859000E+01
-3.703501E-01	-3.160063E-03	3.948000E+01
-3.703577E-01	-3.160907E-03	3.993000E+01
-3.703577E-01	-3.161751E-03	4.037000E+01
-3.703501E-01	-3.162519E-03	4.082000E+01
-3.703501E-01	-3.163363E-03	4.126000E+01
-3.703501E-01	-3.164284E-03	4.170000E+01
-3.703577E-01	-3.165128E-03	4.215000E+01
-3.703501E-01	-3.165972E-03	4.259000E+01
-3.703501E-01	-3.166893E-03	4.303000E+01
-3.703577E-01	-3.167891E-03	4.347000E+01
-3.703577E-01	-3.168812E-03	4.392000E+01
-3.703501E-01	-3.169656E-03	4.436000E+01
-3.703501E-01	-3.170731E-03	4.481000E+01
-3.703424E-01	-3.171498E-03	4.524000E+01
-3.703501E-01	-3.172266E-03	4.568000E+01
-3.703501E-01	-3.173187E-03	4.613000E+01
-3.703501E-01	-3.174108E-03	4.657000E+01
-3.703501E-01	-3.175028E-03	4.702000E+01
-3.703501E-01	-3.175873E-03	4.746000E+01
-3.703501E-01	-3.176410E-03	4.791000E+01
-3.703501E-01	-3.177331E-03	4.834000E+01
-3.703501E-01	-3.177715E-03	4.879000E+01
-3.703501E-01	-3.179480E-03	4.966000E+01
-3.703501E-01	-3.180324E-03	5.011000E+01
-3.703501E-01	-3.181245E-03	5.055000E+01
-3.703424E-01	-3.182089E-03	5.100000E+01
-3.703501E-01	-3.182703E-03	5.144000E+01
-3.703424E-01	-3.183547E-03	5.189000E+01
-3.703501E-01	-3.184392E-03	5.233000E+01
-3.703501E-01	-3.185159E-03	5.278000E+01
-3.703501E-01	-3.186003E-03	5.322000E+01
-3.703501E-01	-3.186847E-03	5.366000E+01
-3.703501E-01	-3.187691E-03	5.411000E+01
-3.703501E-01	-3.188689E-03	5.454000E+01
-3.703501E-01	-3.189457E-03	5.499000E+01
-3.703501E-01	-3.190147E-03	5.543000E+01
-3.703501E-01	-3.190915E-03	5.588000E+01
-3.703501E-01	-3.191682E-03	5.632000E+01
-3.703501E-01	-3.192526E-03	5.677000E+01
-3.703501E-01	-3.192987E-03	5.721000E+01
-3.703501E-01	-3.193677E-03	5.764000E+01
-3.703501E-01	-3.194599E-03	5.809000E+01
-3.703424E-01	-3.195980E-03	5.853000E+01
-3.703347E-01	-3.197439E-03	5.941000E+01
-3.703347E-01	-3.198359E-03	5.986000E+01
-3.703424E-01	-3.198897E-03	6.030000E+01
-3.703424E-01	-3.199511E-03	6.075000E+01
-3.703424E-01	-3.200201E-03	6.119000E+01
-3.703347E-01	-3.200969E-03	6.163000E+01
-3.703424E-01	-3.201813E-03	6.208000E+01
-3.703270E-01	-3.202657E-03	6.252000E+01
-3.703347E-01	-3.203271E-03	6.297000E+01
-3.703347E-01	-3.204115E-03	6.341000E+01
-3.703347E-01	-3.205036E-03	6.386000E+01
-3.703347E-01	-3.205804E-03	6.429000E+01
-3.703347E-01	-3.206417E-03	6.474000E+01
-3.703347E-01	-3.206878E-03	6.518000E+01
-3.703347E-01	-3.207646E-03	6.562000E+01
-3.703347E-01	-3.208490E-03	6.607000E+01
-3.703347E-01	-3.209257E-03	6.651000E+01
-3.703347E-01	-3.210255E-03	6.696000E+01
-3.703347E-01	-3.210946E-03	6.740000E+01
-3.703347E-01	-3.211713E-03	6.784000E+01
-3.703270E-01	-3.212251E-03	6.828000E+01
-3.703424E-01	-3.212634E-03	6.873000E+01
-3.703424E-01	-3.214092E-03	6.960000E+01
-3.703424E-01	-3.214936E-03	7.006000E+01
-3.703424E-01	-3.215474E-03	7.049000E+01
-3.703424E-01	-3.216318E-03	7.094000E+01
-3.703424E-01	-3.217008E-03	7.138000E+01
-3.703424E-01	-3.217776E-03	7.183000E+01
-3.703347E-01	-3.218237E-03	7.227000E+01
-3.703501E-01	-3.219004E-03	7.271000E+01
-3.703424E-01	-3.219695E-03	7.316000E+01
-3.703424E-01	-3.220462E-03	7.360000E+01
-3.703501E-01	-3.221230E-03	7.404000E+01
-3.703424E-01	-3.221767E-03	7.448000E+01
-3.703424E-01	-3.222381E-03	7.493000E+01
-3.703424E-01	-3.223072E-03	7.537000E+01
-3.703424E-01	-3.223762E-03	7.582000E+01
-3.703424E-01	-3.224453E-03	7.626000E+01
-3.703424E-01	-3.224990E-03	7.670000E+01
-3.703424E-01	-3.225604E-03	7.715000E+01
-3.703424E-01	-3.226448E-03	7.759000E+01
-3.703424E-01	-3.227062E-03	7.804000E+01
-3.703424E-01	-3.227983E-03	7.847000E+01
-3.703424E-01	-3.228213E-03	7.892000E+01
-3.703424E-01	-3.229442E-03	7.983000E+01
-3.703424E-01	-3.229902E-03	8.027000E+01
-3.703424E-01	-3.230669E-03	8.071000E+01
-3.703424E-01	-3.231130E-03	8.116000E+01
-3.703424E-01	-3.231820E-03	8.160000E+01
-3.703424E-01	-3.232434E-03	8.204000E+01
-3.703501E-01	-3.232972E-03	8.248000E+01
-3.703501E-01	-3.233662E-03	8.293000E+01
-3.703347E-01	-3.234277E-03	8.337000E+01
-3.703424E-01	-3.234967E-03	8.382000E+01
-3.703424E-01	-3.235581E-03	8.426000E+01
-3.703501E-01	-3.236272E-03	8.470000E+01
-3.703424E-01	-3.236886E-03	8.514000E+01
-3.703424E-01	-3.237423E-03	8.558000E+01
-3.703424E-01	-3.238037E-03	8.603000E+01
-3.703424E-01	-3.238651E-03	8.647000E+01
-3.703347E-01	-3.239035E-03	8.692000E+01
-3.703424E-01	-3.239802E-03	8.736000E+01
-3.703424E-01	-3.240416E-03	8.781000E+01
-3.703347E-01	-3.240800E-03	8.825000E+01
-3.703424E-01	-3.242028E-03	8.869000E+01
-3.703424E-01	-3.243102E-03	8.958000E+01
-3.703424E-01	-3.243793E-03	9.003000E+01
-3.703424E-01	-3.244330E-03	9.047000E+01
-3.703424E-01	-3.244944E-03	9.092000E+01
-3.703424E-01	-3.245558E-03	9.136000E+01
-3.703424E-01	-3.246019E-03	9.181000E+01
-3.703424E-01	-3.246633E-03	9.225000E+01
-3.703424E-01	-3.247170E-03	9.268000E+01
-3.703347E-01	-3.247861E-03	9.313000E+01
-3.703424E-01	-3.248628E-03	9.357000E+01
-3.703424E-01	-3.249166E-03	9.402000E+01
-3.703424E-01	-3.249626E-03	9.446000E+01
-3.703424E-01	-3.250163E-03	9.491000E+01
-3.703424E-01	-3.250700E-03	9.535000E+01
-3.703347E-01	-3.251161E-03	9.579000E+01
-3.703424E-01	-3.251544E-03	9.624000E+01
-3.703424E-01	-3.252005E-03	9.667000E+01
-3.703424E-01	-3.252542E-03	9.712000E+01
-3.703424E-01	-3.253156E-03	9.756000E+01
-3.703424E-01	-3.253770E-03	9.801000E+01
-3.703347E-01	-3.254384E-03	9.845000E+01
-3.703424E-01	-3.255305E-03	9.890000E+01
-3.703347E-01	-3.256226E-03	9.979000E+01
-3.703424E-01	-3.256763E-03	1.002200E+02
-3.703424E-01	-3.257300E-03	1.006600E+02
-3.703347E-01	-3.257761E-03	1.011200E+02
-3.703501E-01	-3.258222E-03	1.015500E+02
-3.703424E-01	-3.258835E-03	1.020000E+02
-3.703424E-01	-3.259373E-03	1.024400E+02
-3.703424E-01	-3.259910E-03	1.028900E+02
-3.703424E-01	-3.260217E-03	1.033200E+02
-3.703424E-01	-3.260677E-03	1.037700E+02
-3.703424E-01	-3.261368E-03	1.042100E+02
-3.703424E-01	-3.261752E-03	1.046500E+02
-3.703424E-01	-3.262212E-03	1.051000E+02
-3.703424E-01	-3.262673E-03	1.055400E+02
-3.703424E-01	-3.263286E-03	1.059900E+02
-3.703424E-01	-3.263517E-03	1.064200E+02
-3.703424E-01	-3.264054E-03	1.068800E+02
-3.703424E-01	-3.264745E-03	1.073200E+02
-3.703424E-01	-3.265282E-03	1.077700E+02
-3.703424E-01	-3.265742E-03	1.082000E+02
-3.703424E-01	-3.265589E-03	1.086400E+02
-3.703347E-01	-3.266586E-03	1.095200E+02
-3.703424E-01	-3.266894E-03	1.099700E+02
-3.703424E-01	-3.267508E-03	1.104100E+02
-3.703501E-01	-3.267968E-03	1.108700E+02
-3.703424E-01	-3.268505E-03	1.113100E+02
-3.703424E-01	-3.269043E-03	1.117600E+02
-3.703424E-01	-3.269580E-03	1.122000E+02
-3.703424E-01	-3.270040E-03	1.126300E+02
-3.703424E-01	-3.270654E-03	1.130800E+02
-3.703424E-01	-3.271038E-03	1.135200E+02
-3.703424E-01	-3.271498E-03	1.139700E+02
-3.703347E-01	-3.272036E-03	1.144100E+02
-3.703424E-01	-3.272573E-03	1.148600E+02
-3.703424E-01	-3.273110E-03	1.153000E+02
-3.703424E-01	-3.273647E-03	1.157500E+02
-3.703347E-01	-3.274261E-03	1.161800E+02
-3.703424E-01	-3.275029E-03	1.166200E+02
-3.703424E-01	-3.275259E-03	1.170700E+02
-3.703424E-01	-3.275566E-03	1.175100E+02
-3.703424E-01	-3.275950E-03	1.179600E+02
-3.703424E-01	-3.276103E-03	1.184000E+02
-3.703424E-01	-3.276947E-03	1.188500E+02
-3.703347E-01	-3.278022E-03	1.197300E+02
-3.703424E-01	-3.278252E-03	1.201700E+02
-3.703347E-01	-3.278636E-03	1.206100E+02
-3.703424E-01	-3.279173E-03	1.210600E+02
-3.703424E-01	-3.279710E-03	1.215000E+02
-3.703347E-01	-3.280094E-03	1.219500E+02
-3.703424E-01	-3.280324E-03	1.223900E+02
-3.703424E-01	-3.281015E-03	1.228400E+02
-3.703347E-01	-3.281552E-03	1.232800E+02
-3.703347E-01	-3.281859E-03	1.237300E+02
-3.703347E-01	-3.282396E-03	1.241700E+02
-3.703347E-01	-3.282857E-03	1.246000E+02
-3.703424E-01	-3.283317E-03	1.250500E+02
-3.703347E-01	-3.283624E-03	1.254900E+02
-3.703347E-01	-3.284008E-03	1.259400E+02
-3.703270E-01	-3.284238E-03	1.263800E+02
-3.703424E-01	-3.284852E-03	1.268300E+02
-3.703424E-01	-3.285006E-03	1.272700E+02
-3.703347E-01	-3.285466E-03	1.277100E+02
-3.703424E-01	-3.285850E-03	1.281500E+02
-3.703347E-01	-3.286848E-03	1.285900E+02
-3.703347E-01	-3.288152E-03	1.294800E+02
-3.703424E-01	-3.288690E-03	1.299300E+02
-3.703424E-01	-3.289073E-03	1.303700E+02
-3.703424E-01	-3.289534E-03	1.308200E+02
-3.703424E-01	-3.290071E-03	1.312600E+02
-3.703424E-01	-3.290455E-03	1.316900E+02
-3.703424E-01	-3.291145E-03	1.321400E+02
-3.703424E-01	-3.291453E-03	1.325800E+02
-3.703424E-01	-3.291836E-03	1.330300E+02
-3.703347E-01	-3.292297E-03	1.334700E+02
-3.703347E-01	-3.292680E-03	1.339200E+02
-3.703347E-01	-3.293217E-03	1.343500E+02
-3.703347E-01	-3.293524E-03	1.348000E+02
-3.703424E-01	-3.293985E-03	1.352400E+02
-3.703424E-01	-3.294216E-03	1.356800E+02
-3.703424E-01	-3.294369E-03	1.361300E+02
-3.703424E-01	-3.294599E-03	1.365700E+02
-3.703424E-01	-3.295060E-03	1.370200E+02
-3.703424E-01	-3.295443E-03	1.374600E+02
-3.703424E-01	-3.295827E-03	1.379000E+02
-3.703424E-01	-3.296211E-03	1.383400E+02
-3.703424E-01	-3.296364E-03	1.387900E+02
-3.703347E-01	-3.296978E-03	1.396700E+02
-3.703347E-01	-3.297592E-03	1.401200E+02
-3.703347E-01	-3.298129E-03	1.405600E+02
-3.703347E-01	-3.298359E-03	1.410000E+02
-3.703424E-01	-3.298820E-03	1.414400E+02
-3.703424E-01	-3.299357E-03	1.418900E+02
-3.703347E-01	-3.299588E-03	1.423300E+02
-3.703347E-01	-3.300048E-03	1.427800E+02
-3.703424E-01	-3.300739E-03	1.432200E+02
-3.703424E-01	-3.301123E-03	1.436600E+02
-3.703347E-01	-3.301506E-03	1.441000E+02
-3.703347E-01	-3.301736E-03	1.445400E+02
-3.703424E-01	-3.302044E-03	1.449900E+02
-3.703424E-01	-3.302581E-03	1.454300E+02
-3.703424E-01	-3.302811E-03	1.458800E+02
-3.703347E-01	-3.303118E-03	1.463200E+02
-3.703424E-01	-3.303502E-03	1.467700E+02
-3.703424E-01	-3.303809E-03	1.472100E+02
-3.703347E-01	-3.304192E-03	1.476500E+02
-3.703347E-01	-3.304499E-03	1.481000E+02
-3.703270E-01	-3.305113E-03	1.485300E+02
-3.703270E-01	-3.305651E-03	1.494200E+02
-3.703270E-01	-3.306034E-03	1.498800E+02
-3.703347E-01	-3.306571E-03	1.503200E+02
-3.703270E-01	-3.307032E-03	1.507700E+02
-3.703270E-01	-3.307416E-03	1.512000E+02
-3.703347E-01	-3.307876E-03	1.516400E+02
-3.703270E-01	-3.308030E-03	1.520900E+02
-3.703347E-01	-3.308260E-03	1.525300E+02
-3.703347E-01	-3.308720E-03	1.529800E+02
-3.703347E-01	-3.309181E-03	1.534200E+02
-3.703347E-01	-3.309718E-03	1.538700E+02
-3.703270E-01	-3.310102E-03	1.543100E+02
-3.703347E-01	-3.310332E-03	1.547600E+02
-3.703347E-01	-3.310869E-03	1.552000E+02
-3.703270E-01	-3.311176E-03	1.556300E+02
-3.703347E-01	-3.311483E-03	1.560800E+02
-3.703347E-01	-3.311790E-03	1.565200E+02
-3.703270E-01	-3.311944E-03	1.569700E+02
-3.703347E-01	-3.312328E-03	1.574100E+02
-3.703347E-01	-3.312634E-03	1.578600E+02
-3.703270E-01	-3.313018E-03	1.583000E+02
-3.703347E-01	-3.312941E-03	1.587500E+02
-3.703270E-01	-3.313325E-03	1.596500E+02
-3.703270E-01	-3.313632E-03	1.601000E+02
-3.703347E-01	-3.314092E-03	1.605300E+02
-3.703270E-01	-3.314323E-03	1.609800E+02
-3.703270E-01	-3.315014E-03	1.614300E+02
-3.703270E-01	-3.315474E-03	1.618800E+02
-3.703347E-01	-3.315704E-03	1.623100E+02
-3.703270E-01	-3.316088E-03	1.627600E+02
-3.703270E-01	-3.316395E-03	1.632000E+02
-3.703347E-01	-3.316548E-03	1.636400E+02
-3.703347E-01	-3.316779E-03	1.640900E+02
-3.703270E-01	-3.317239E-03	1.645300E+02
-3.703270E-01	-3.317546E-03	1.649800E+02
-3.703270E-01	-3.318006E-03	1.654100E+02
-3.703270E-01	-3.318390E-03	1.658600E+02
-3.703270E-01	-3.318851E-03	1.663000E+02
-3.703270E-01	-3.319081E-03	1.667500E+02
-3.703270E-01	-3.319388E-03	1.671900E+02
-3.703347E-01	-3.319849E-03	1.676200E+02
-3.703347E-01	-3.320078E-03	1.680700E+02
-3.703270E-01	-3.320309E-03	1.685100E+02
-3.703270E-01	-3.320693E-03	1.689600E+02
-3.703270E-01	-3.321230E-03	1.698400E+02
-3.703270E-01	-3.321613E-03	1.702800E+02
-3.703270E-01	-3.322074E-03	1.707200E+02
-3.703347E-01	-3.322458E-03	1.711700E+02
-3.703270E-01	-3.322765E-03	1.716000E+02
-3.703270E-01	-3.323149E-03	1.720500E+02
-3.703347E-01	-3.323455E-03	1.724900E+02
-3.703347E-01	-3.323609E-03	1.729400E+02
-3.703270E-01	-3.323916E-03	1.733800E+02
-3.703270E-01	-3.324146E-03	1.738300E+02
-3.703270E-01	-3.324453E-03	1.742600E+02
-3.703270E-01	-3.324760E-03	1.747000E+02
-3.703270E-01	-3.325067E-03	1.751500E+02
-3.703270E-01	-3.325374E-03	1.755900E+02
-3.703270E-01	-3.325604E-03	1.760400E+02
-3.703347E-01	-3.326065E-03	1.764800E+02
-3.703270E-01	-3.326065E-03	1.769300E+02
-3.703347E-01	-3.326372E-03	1.773700E+02
-3.703270E-01	-3.326832E-03	1.778200E+02
-3.703347E-01	-3.327063E-03	1.782600E+02
-3.703347E-01	-3.327830E-03	1.786900E+02
-3.703347E-01	-3.328444E-03	1.795800E+02
-3.703424E-01	-3.328751E-03	1.800300E+02
-3.703424E-01	-3.329135E-03	1.804700E+02
-3.703424E-01	-3.329442E-03	1.809200E+02
-3.703424E-01	-3.329595E-03	1.813500E+02
-3.703424E-01	-3.329902E-03	1.818000E+02
-3.703424E-01	-3.330209E-03	1.822400E+02
-3.703347E-01	-3.330516E-03	1.826800E+02
-3.703347E-01	-3.330593E-03	1.831300E+02
-3.703347E-01	-3.330516E-03	1.835600E+02
-3.703347E-01	-3.330670E-03	1.840100E+02
-3.703347E-01	-3.331054E-03	1.844500E+02
-3.703424E-01	-3.331360E-03	1.849000E+02
-3.703347E-01	-3.331974E-03	1.853400E+02
-3.703347E-01	-3.332128E-03	1.857900E+02
-3.703347E-01	-3.332435E-03	1.862300E+02
-3.703347E-01	-3.332665E-03	1.866700E+02
-3.703347E-01	-3.333049E-03	1.871100E+02
-3.703424E-01	-3.333356E-03	1.875500E+02
-3.703424E-01	-3.333509E-03	1.880000E+02
-3.703424E-01	-3.333816E-03	1.884400E+02
-3.703347E-01	-3.334047E-03	1.888900E+02
-3.703347E-01	-3.334507E-03	1.897800E+02
-3.703347E-01	-3.334891E-03	1.902200E+02
-3.703347E-01	-3.335044E-03	1.906600E+02
-3.703347E-01	-3.335198E-03	1.911100E+02
-3.703347E-01	-3.335275E-03	1.915400E+02
-3.703347E-01	-3.335658E-03	1.919900E+02
-3.703347E-01	-3.335965E-03	1.924300E+02
-3.703347E-01	-3.336119E-03	1.928800E+02
-3.703347E-01	-3.336426E-03	1.933200E+02
-3.703347E-01	-3.336579E-03	1.937800E+02
-3.703347E-01	-3.336886E-03	1.942100E+02
-3.703424E-01	-3.337193E-03	1.946500E+02
-3.703347E-01	-3.337423E-03	1.951000E+02
-3.703347E-01	-3.337577E-03	1.955300E+02
-3.703347E-01	-3.337884E-03	1.959800E+02
-3.703424E-01	-3.338038E-03	1.964200E+02
-3.703424E-01	-3.338191E-03	1.968700E+02
-3.703347E-01	-3.338575E-03	1.973100E+02
-3.703424E-01	-3.338882E-03	1.977600E+02
-3.703347E-01	-3.338959E-03	1.981900E+02
-3.703347E-01	-3.339189E-03	1.986300E+02
-3.703270E-01	-3.339879E-03	1.995200E+02
-3.703347E-01	-3.340033E-03	1.999700E+02
-3.703347E-01	-3.340417E-03	2.004100E+02
-3.703424E-01	-3.340570E-03	2.008600E+02
-3.703347E-01	-3.340877E-03	2.012900E+02
-3.703347E-01	-3.341107E-03	2.017400E+02
-3.703347E-01	-3.341337E-03	2.021800E+02
-3.703347E-01	-3.341798E-03	2.026300E+02
-3.703347E-01	-3.342105E-03	2.030800E+02
-3.703347E-01	-3.342259E-03	2.035100E+02
-3.703347E-01	-3.342412E-03	2.039600E+02
-3.703347E-01	-3.342642E-03	2.044000E+02
-3.703347E-01	-3.343026E-03	2.048500E+02
-3.703347E-01	-3.343333E-03	2.052900E+02
-3.703347E-01	-3.343486E-03	2.057400E+02
-3.703347E-01	-3.343947E-03	2.061800E+02
-3.703347E-01	-3.344024E-03	2.066100E+02
-3.703347E-01	-3.344254E-03	2.070600E+02
-3.703347E-01	-3.344484E-03	2.075000E+02
-3.703347E-01	-3.344561E-03	2.079500E+02
-3.703347E-01	-3.344791E-03	2.083900E+02
-3.703347E-01	-3.344254E-03	2.088400E+02
-3.703347E-01	-3.344714E-03	2.097100E+02
-3.703347E-01	-3.345098E-03	2.101600E+02
-3.703424E-01	-3.345328E-03	2.105900E+02
-3.703424E-01	-3.345635E-03	2.110400E+02
-3.703424E-01	-3.345712E-03	2.114800E+02
-3.703347E-01	-3.345942E-03	2.119300E+02
-3.703347E-01	-3.346249E-03	2.123800E+02
-3.703424E-01	-3.346326E-03	2.128300E+02
-3.703347E-01	-3.346633E-03	2.132600E+02
-3.703347E-01	-3.346709E-03	2.137000E+02
-3.703347E-01	-3.346787E-03	2.141500E+02
-3.703424E-01	-3.347016E-03	2.145900E+02
-3.703347E-01	-3.347093E-03	2.150400E+02
-3.703424E-01	-3.347170E-03	2.154800E+02
-3.703347E-01	-3.347400E-03	2.159300E+02
-3.703347E-01	-3.347784E-03	2.163600E+02
-3.703424E-01	-3.348091E-03	2.168100E+02
-3.703347E-01	-3.348245E-03	2.172500E+02
-3.703424E-01	-3.348552E-03	2.176900E+02
-3.703424E-01	-3.348858E-03	2.181400E+02
-3.703270E-01	-3.348858E-03	2.185800E+02
-3.703270E-01	-3.349242E-03	2.194600E+02
-3.703270E-01	-3.349549E-03	2.199100E+02
