CORRW ASCII
  CorrWare for Windows: Version 3.5f
  Potentiostatic	[-0.37 Ref,50 Hour][default]	bias_-370mV_3.cor
  Date: 11-05-2019    Time: 20:41:49
   
   
  Open Circuit Potential (V): 0.0031
  Begin Information:          Cell Information
    Surface Area:             1
    Density:                  0
    Weight:                   0
    Polarity:                 0
    PolarityI:                0
    Corrosion Unit Type:      0
    Reference Type:           0
    Reference Potential:      0
    User-Defined Potential:   0
    Stern-Geary:              26
  End Information:            Cell Information
  Begin Pstat:                1287
    Pstat Title:              Instrument #1
    Booster Type:             0
    Booster Name:             None
    Current Range:            0
    Current Limit:            0
    Current LimitType:        0
    Sweep Type:               0
    Use Error Beep:           1
    Auxilary Type:            0
    iR Comp. Type:            0
    iR Ohms:                  0
    iR Time:                  27
    iR Ratio:                 255
    LP Filter Type:           2
    Drift Correction:         1
    Null Correction:          0
    Pstat Bandwidth Type:     2
    Gstat Bandwidth Type:     2
    External Input:           0
    SafetyMinV:               0
    SafetyMaxV:               10
    SafetyMinI:               0
    SafetyMaxI:               4
    SafetyMinQ:               0
    SafetyMaxQ:               1000
    SafetyMinT:               0
    SafetyMaxT:               50
    SafetyChT:                0
    SafetyMinVUse:            0
    SafetyMaxVUse:            0
    SafetyMinIUse:            0
    SafetyMaxIUse:            0
    SafetyMinQUse:            0
    SafetyMaxQUse:            0
    SafetyMinTUse:            0
    SafetyMaxTUse:            0
  End Pstat:                  1287
  Begin Experiment:           Potentiostatic	[-0.37 Ref,50 Hour][default]	bias_-370mV_3.cor
    Data File:                Z:\191101_Amezawa\fr_XAS\DPB2\700C_100%O2\Electrochem\bias_-370mV_3.cor
    Data Append:              0
    Comment Lines:            0
    Potential:                -0.37
    Potential Type:           1
    Total Time:               50
    Time Units:               2
    Time Marker:              -1
    Measure Rate Type:        1
    Measure Rate #1:          2000
    Measure Rate #2:          10
    Measure Rate #3:          0.1
    Measure Rate #4:          2
    Use Threshold:            0
    Threshold I_Min:          -15
    Threshold I_Max:          15
    Threshold Delta:          5
    Threshold Time:           60
    Copy AuxV:                0
    Axes Type:                1
    Use Custom Pstat:         0
  End Experiment:             Potentiostatic	[-0.37 Ref,50 Hour][default]	bias_-370mV_3.cor
  Data Points:                495
  E(Volts)	I(A/cm2)	T(Seconds)
End Comments
-3.824180E-01	-3.637962E-03	0.000000E+00
-3.703731E-01	-3.555843E-03	8.900000E-01
-3.703654E-01	-3.599819E-03	1.340000E+00
-3.703577E-01	-3.628522E-03	1.790000E+00
-3.703884E-01	-3.647248E-03	2.230000E+00
-3.703884E-01	-3.659680E-03	2.670000E+00
-3.703884E-01	-3.667969E-03	3.120000E+00
-3.703731E-01	-3.673265E-03	3.560000E+00
-3.703731E-01	-3.676872E-03	4.010000E+00
-3.703654E-01	-3.679097E-03	4.450000E+00
-3.703654E-01	-3.680786E-03	4.900000E+00
-3.703577E-01	-3.682014E-03	5.340000E+00
-3.703577E-01	-3.682628E-03	5.780000E+00
-3.703654E-01	-3.683395E-03	6.220000E+00
-3.703577E-01	-3.684239E-03	6.660000E+00
-3.703577E-01	-3.684777E-03	7.110000E+00
-3.703577E-01	-3.685083E-03	7.550000E+00
-3.703654E-01	-3.685544E-03	8.000000E+00
-3.703577E-01	-3.686082E-03	8.440000E+00
-3.703654E-01	-3.685697E-03	8.880000E+00
-3.703578E-01	-3.686925E-03	9.770000E+00
-3.703654E-01	-3.687309E-03	1.021000E+01
-3.703654E-01	-3.687693E-03	1.064000E+01
-3.703578E-01	-3.688153E-03	1.109000E+01
-3.703654E-01	-3.688614E-03	1.153000E+01
-3.703654E-01	-3.689227E-03	1.198000E+01
-3.703731E-01	-3.689918E-03	1.242000E+01
-3.703654E-01	-3.690379E-03	1.287000E+01
-3.703654E-01	-3.690916E-03	1.331000E+01
-3.703654E-01	-3.691453E-03	1.376000E+01
-3.703731E-01	-3.691914E-03	1.419000E+01
-3.703654E-01	-3.692758E-03	1.463000E+01
-3.703654E-01	-3.693295E-03	1.508000E+01
-3.703654E-01	-3.693679E-03	1.551000E+01
-3.703654E-01	-3.694216E-03	1.596000E+01
-3.703731E-01	-3.694677E-03	1.641000E+01
-3.703654E-01	-3.695291E-03	1.686000E+01
-3.703654E-01	-3.695828E-03	1.730000E+01
-3.703731E-01	-3.696135E-03	1.775000E+01
-3.703654E-01	-3.696519E-03	1.818000E+01
-3.703654E-01	-3.697056E-03	1.862000E+01
-3.703654E-01	-3.698130E-03	1.950000E+01
-3.703654E-01	-3.698591E-03	1.995000E+01
-3.703654E-01	-3.699205E-03	2.039000E+01
-3.703654E-01	-3.699589E-03	2.084000E+01
-3.703731E-01	-3.700126E-03	2.128000E+01
-3.703731E-01	-3.700586E-03	2.171000E+01
-3.703654E-01	-3.701047E-03	2.217000E+01
-3.703731E-01	-3.701584E-03	2.261000E+01
-3.703654E-01	-3.702198E-03	2.306000E+01
-3.703654E-01	-3.702582E-03	2.350000E+01
-3.703654E-01	-3.703042E-03	2.395000E+01
-3.703654E-01	-3.703426E-03	2.438000E+01
-3.703731E-01	-3.704040E-03	2.483000E+01
-3.703731E-01	-3.704500E-03	2.527000E+01
-3.703654E-01	-3.705038E-03	2.571000E+01
-3.703654E-01	-3.705498E-03	2.616000E+01
-3.703654E-01	-3.706342E-03	2.660000E+01
-3.703731E-01	-3.706879E-03	2.705000E+01
-3.703654E-01	-3.707263E-03	2.749000E+01
-3.703654E-01	-3.707800E-03	2.793000E+01
-3.703654E-01	-3.708414E-03	2.837000E+01
-3.703731E-01	-3.709642E-03	2.882000E+01
-3.703654E-01	-3.710640E-03	2.970000E+01
-3.703654E-01	-3.710947E-03	3.015000E+01
-3.703654E-01	-3.711408E-03	3.059000E+01
-3.703654E-01	-3.712022E-03	3.103000E+01
-3.703654E-01	-3.712482E-03	3.147000E+01
-3.703654E-01	-3.712943E-03	3.192000E+01
-3.703654E-01	-3.713403E-03	3.236000E+01
-3.703731E-01	-3.713940E-03	3.281000E+01
-3.703654E-01	-3.714401E-03	3.325000E+01
-3.703654E-01	-3.714938E-03	3.369000E+01
-3.703731E-01	-3.715706E-03	3.414000E+01
-3.703731E-01	-3.716243E-03	3.458000E+01
-3.703654E-01	-3.716703E-03	3.502000E+01
-3.703654E-01	-3.717087E-03	3.546000E+01
-3.703731E-01	-3.717548E-03	3.591000E+01
-3.703654E-01	-3.718008E-03	3.635000E+01
-3.703731E-01	-3.718468E-03	3.681000E+01
-3.703654E-01	-3.718852E-03	3.725000E+01
-3.703654E-01	-3.719313E-03	3.768000E+01
-3.703654E-01	-3.719696E-03	3.813000E+01
-3.703731E-01	-3.720080E-03	3.857000E+01
-3.703654E-01	-3.720924E-03	3.946000E+01
-3.703731E-01	-3.721461E-03	3.991000E+01
-3.703731E-01	-3.721922E-03	4.034000E+01
-3.703654E-01	-3.722459E-03	4.079000E+01
-3.703654E-01	-3.722920E-03	4.123000E+01
-3.703731E-01	-3.723226E-03	4.167000E+01
-3.703654E-01	-3.723764E-03	4.212000E+01
-3.703731E-01	-3.724378E-03	4.256000E+01
-3.703654E-01	-3.724608E-03	4.301000E+01
-3.703654E-01	-3.725068E-03	4.345000E+01
-3.703654E-01	-3.725529E-03	4.390000E+01
-3.703654E-01	-3.725990E-03	4.433000E+01
-3.703731E-01	-3.726066E-03	4.478000E+01
-3.703654E-01	-3.726680E-03	4.522000E+01
-3.703731E-01	-3.727141E-03	4.566000E+01
-3.703654E-01	-3.727524E-03	4.611000E+01
-3.703731E-01	-3.727908E-03	4.655000E+01
-3.703654E-01	-3.728369E-03	4.699000E+01
-3.703654E-01	-3.728599E-03	4.743000E+01
-3.703731E-01	-3.729213E-03	4.788000E+01
-3.703731E-01	-3.729443E-03	4.832000E+01
-3.703654E-01	-3.729059E-03	4.877000E+01
-3.703577E-01	-3.729750E-03	4.963000E+01
-3.703654E-01	-3.730210E-03	5.008000E+01
-3.703654E-01	-3.730671E-03	5.052000E+01
-3.703577E-01	-3.730978E-03	5.097000E+01
-3.703577E-01	-3.731362E-03	5.141000E+01
-3.703577E-01	-3.731668E-03	5.186000E+01
-3.703654E-01	-3.732129E-03	5.229000E+01
-3.703577E-01	-3.732359E-03	5.274000E+01
-3.703577E-01	-3.732743E-03	5.318000E+01
-3.703577E-01	-3.732973E-03	5.362000E+01
-3.703654E-01	-3.733280E-03	5.407000E+01
-3.703654E-01	-3.733587E-03	5.451000E+01
-3.703577E-01	-3.733894E-03	5.496000E+01
-3.703577E-01	-3.734278E-03	5.539000E+01
-3.703577E-01	-3.734508E-03	5.584000E+01
-3.703654E-01	-3.734815E-03	5.628000E+01
-3.703654E-01	-3.735198E-03	5.673000E+01
-3.703577E-01	-3.735429E-03	5.717000E+01
-3.703654E-01	-3.735813E-03	5.761000E+01
-3.703654E-01	-3.736043E-03	5.806000E+01
-3.703577E-01	-3.736427E-03	5.849000E+01
-3.703654E-01	-3.736580E-03	5.894000E+01
-3.703654E-01	-3.737194E-03	5.982000E+01
-3.703731E-01	-3.737655E-03	6.026000E+01
-3.703654E-01	-3.737962E-03	6.070000E+01
-3.703731E-01	-3.738115E-03	6.116000E+01
-3.703731E-01	-3.738422E-03	6.159000E+01
-3.703654E-01	-3.738652E-03	6.204000E+01
-3.703731E-01	-3.738959E-03	6.248000E+01
-3.703731E-01	-3.739266E-03	6.293000E+01
-3.703654E-01	-3.739727E-03	6.337000E+01
-3.703731E-01	-3.740034E-03	6.382000E+01
-3.703731E-01	-3.740264E-03	6.426000E+01
-3.703731E-01	-3.740418E-03	6.469000E+01
-3.703654E-01	-3.740571E-03	6.514000E+01
-3.703654E-01	-3.741108E-03	6.558000E+01
-3.703654E-01	-3.741415E-03	6.603000E+01
-3.703731E-01	-3.741569E-03	6.647000E+01
-3.703731E-01	-3.742106E-03	6.692000E+01
-3.703731E-01	-3.742566E-03	6.736000E+01
-3.703654E-01	-3.742566E-03	6.782000E+01
-3.703654E-01	-3.742643E-03	6.826000E+01
-3.703731E-01	-3.742950E-03	6.869000E+01
-3.703731E-01	-3.743641E-03	6.958000E+01
-3.703731E-01	-3.743871E-03	7.003000E+01
-3.703654E-01	-3.744101E-03	7.047000E+01
-3.703654E-01	-3.744485E-03	7.094000E+01
-3.703731E-01	-3.744716E-03	7.138000E+01
-3.703654E-01	-3.744869E-03	7.183000E+01
-3.703731E-01	-3.745176E-03	7.227000E+01
-3.703731E-01	-3.745406E-03	7.271000E+01
-3.703654E-01	-3.745483E-03	7.316000E+01
-3.703654E-01	-3.745713E-03	7.360000E+01
-3.703654E-01	-3.745943E-03	7.404000E+01
-3.703654E-01	-3.746173E-03	7.448000E+01
-3.703578E-01	-3.745560E-03	7.493000E+01
-3.703654E-01	-3.745483E-03	7.537000E+01
-3.703654E-01	-3.745790E-03	7.582000E+01
-3.703731E-01	-3.746020E-03	7.626000E+01
-3.703731E-01	-3.746404E-03	7.670000E+01
-3.703731E-01	-3.746787E-03	7.715000E+01
-3.703731E-01	-3.746941E-03	7.758000E+01
-3.703731E-01	-3.747325E-03	7.803000E+01
-3.703654E-01	-3.747555E-03	7.847000E+01
-3.703577E-01	-3.747785E-03	7.892000E+01
-3.703577E-01	-3.748476E-03	7.981000E+01
-3.703577E-01	-3.748629E-03	8.024000E+01
-3.703654E-01	-3.748706E-03	8.068000E+01
-3.703577E-01	-3.749090E-03	8.113000E+01
-3.703577E-01	-3.749243E-03	8.157000E+01
-3.703577E-01	-3.749320E-03	8.202000E+01
-3.703654E-01	-3.749550E-03	8.247000E+01
-3.703577E-01	-3.749627E-03	8.291000E+01
-3.703577E-01	-3.749857E-03	8.335000E+01
-3.703654E-01	-3.750011E-03	8.380000E+01
-3.703654E-01	-3.750241E-03	8.424000E+01
-3.703654E-01	-3.750318E-03	8.468000E+01
-3.703654E-01	-3.750471E-03	8.513000E+01
-3.703654E-01	-3.750702E-03	8.557000E+01
-3.703577E-01	-3.750779E-03	8.602000E+01
-3.703577E-01	-3.751085E-03	8.646000E+01
-3.703654E-01	-3.751315E-03	8.691000E+01
-3.703654E-01	-3.751623E-03	8.734000E+01
-3.703654E-01	-3.751776E-03	8.779000E+01
-3.703654E-01	-3.751929E-03	8.823000E+01
-3.703731E-01	-3.752850E-03	8.867000E+01
-3.703731E-01	-3.753158E-03	8.956000E+01
-3.703731E-01	-3.753234E-03	9.001000E+01
-3.703731E-01	-3.753541E-03	9.044000E+01
-3.703731E-01	-3.753772E-03	9.089000E+01
-3.703731E-01	-3.753772E-03	9.133000E+01
-3.703654E-01	-3.754002E-03	9.178000E+01
-3.703731E-01	-3.754079E-03	9.222000E+01
-3.703654E-01	-3.754309E-03	9.265000E+01
-3.703654E-01	-3.754462E-03	9.310000E+01
-3.703731E-01	-3.754539E-03	9.354000E+01
-3.703654E-01	-3.754616E-03	9.399000E+01
-3.703731E-01	-3.754692E-03	9.442000E+01
-3.703654E-01	-3.754999E-03	9.487000E+01
-3.703654E-01	-3.755153E-03	9.531000E+01
-3.703654E-01	-3.755537E-03	9.576000E+01
-3.703731E-01	-3.755613E-03	9.620000E+01
-3.703654E-01	-3.755691E-03	9.664000E+01
-3.703654E-01	-3.755920E-03	9.709000E+01
-3.703654E-01	-3.755997E-03	9.752000E+01
-3.703731E-01	-3.756304E-03	9.797000E+01
-3.703731E-01	-3.756381E-03	9.841000E+01
-3.703654E-01	-3.756535E-03	9.886000E+01
-3.703577E-01	-3.756688E-03	9.975000E+01
-3.703577E-01	-3.756765E-03	1.001900E+02
-3.703577E-01	-3.756995E-03	1.006200E+02
-3.703654E-01	-3.756995E-03	1.010800E+02
-3.703577E-01	-3.757072E-03	1.015200E+02
-3.703577E-01	-3.757072E-03	1.019700E+02
-3.703577E-01	-3.757456E-03	1.024000E+02
-3.703654E-01	-3.757532E-03	1.028500E+02
-3.703654E-01	-3.757839E-03	1.032900E+02
-3.703577E-01	-3.757839E-03	1.037400E+02
-3.703654E-01	-3.758069E-03	1.041700E+02
-3.703654E-01	-3.758300E-03	1.046100E+02
-3.703654E-01	-3.758453E-03	1.050700E+02
-3.703654E-01	-3.758453E-03	1.055000E+02
-3.703654E-01	-3.758683E-03	1.059600E+02
-3.703577E-01	-3.758760E-03	1.063900E+02
-3.703577E-01	-3.758683E-03	1.068400E+02
-3.703654E-01	-3.758837E-03	1.072800E+02
-3.703654E-01	-3.758914E-03	1.077300E+02
-3.703654E-01	-3.759067E-03	1.081700E+02
-3.703654E-01	-3.758529E-03	1.086000E+02
-3.703654E-01	-3.758760E-03	1.094900E+02
-3.703654E-01	-3.758914E-03	1.099400E+02
-3.703654E-01	-3.758914E-03	1.103800E+02
-3.703654E-01	-3.759067E-03	1.108300E+02
-3.703654E-01	-3.759220E-03	1.112700E+02
-3.703731E-01	-3.759297E-03	1.117100E+02
-3.703654E-01	-3.759451E-03	1.121600E+02
-3.703654E-01	-3.759527E-03	1.126000E+02
-3.703654E-01	-3.759527E-03	1.130400E+02
-3.703654E-01	-3.759604E-03	1.134800E+02
-3.703654E-01	-3.759758E-03	1.139300E+02
-3.703654E-01	-3.759834E-03	1.143700E+02
-3.703577E-01	-3.759758E-03	1.148200E+02
-3.703654E-01	-3.760065E-03	1.152600E+02
-3.703577E-01	-3.760065E-03	1.157000E+02
-3.703577E-01	-3.760065E-03	1.161500E+02
-3.703577E-01	-3.760218E-03	1.165800E+02
-3.703577E-01	-3.760065E-03	1.170300E+02
-3.703577E-01	-3.760141E-03	1.174700E+02
-3.703577E-01	-3.760141E-03	1.179200E+02
-3.703577E-01	-3.760065E-03	1.183600E+02
-3.703654E-01	-3.760141E-03	1.188100E+02
-3.703654E-01	-3.760602E-03	1.196900E+02
-3.703731E-01	-3.760755E-03	1.201400E+02
-3.703731E-01	-3.760909E-03	1.205800E+02
-3.703731E-01	-3.760909E-03	1.210300E+02
-3.703731E-01	-3.760909E-03	1.214700E+02
-3.703731E-01	-3.761216E-03	1.219200E+02
-3.703731E-01	-3.761369E-03	1.223600E+02
-3.703731E-01	-3.761369E-03	1.228000E+02
-3.703731E-01	-3.761369E-03	1.232400E+02
-3.703654E-01	-3.761292E-03	1.236800E+02
-3.703731E-01	-3.761369E-03	1.241300E+02
-3.703654E-01	-3.761446E-03	1.245700E+02
-3.703654E-01	-3.761523E-03	1.250200E+02
-3.703654E-01	-3.761753E-03	1.254600E+02
-3.703731E-01	-3.761753E-03	1.259100E+02
-3.703654E-01	-3.761830E-03	1.263500E+02
-3.703731E-01	-3.761753E-03	1.267900E+02
-3.703731E-01	-3.761830E-03	1.272300E+02
-3.703731E-01	-3.761983E-03	1.276700E+02
-3.703654E-01	-3.762060E-03	1.281200E+02
-3.703731E-01	-3.762904E-03	1.285600E+02
-3.703654E-01	-3.762751E-03	1.294500E+02
-3.703654E-01	-3.762751E-03	1.298900E+02
-3.703731E-01	-3.762981E-03	1.303300E+02
-3.703654E-01	-3.762981E-03	1.307800E+02
-3.703654E-01	-3.762981E-03	1.312200E+02
-3.703654E-01	-3.762981E-03	1.316600E+02
-3.703654E-01	-3.763058E-03	1.321000E+02
-3.703731E-01	-3.763058E-03	1.325400E+02
-3.703654E-01	-3.763058E-03	1.329900E+02
-3.703654E-01	-3.762981E-03	1.334300E+02
-3.703731E-01	-3.763058E-03	1.338800E+02
-3.703731E-01	-3.763211E-03	1.343200E+02
-3.703731E-01	-3.763288E-03	1.347700E+02
-3.703731E-01	-3.763288E-03	1.352000E+02
-3.703731E-01	-3.763288E-03	1.356400E+02
-3.703731E-01	-3.763058E-03	1.360900E+02
-3.703731E-01	-3.763288E-03	1.365300E+02
-3.703731E-01	-3.763442E-03	1.369800E+02
-3.703808E-01	-3.763595E-03	1.374200E+02
-3.703731E-01	-3.763595E-03	1.378700E+02
-3.703808E-01	-3.763595E-03	1.383000E+02
-3.703731E-01	-3.763288E-03	1.387500E+02
-3.703731E-01	-3.763518E-03	1.396200E+02
-3.703731E-01	-3.763595E-03	1.400800E+02
-3.703731E-01	-3.763672E-03	1.405200E+02
-3.703731E-01	-3.763748E-03	1.409700E+02
-3.703654E-01	-3.763748E-03	1.414000E+02
-3.703654E-01	-3.763748E-03	1.418500E+02
-3.703654E-01	-3.763825E-03	1.422900E+02
-3.703654E-01	-3.763902E-03	1.427400E+02
-3.703654E-01	-3.763902E-03	1.431800E+02
-3.703654E-01	-3.764055E-03	1.436200E+02
-3.703654E-01	-3.764132E-03	1.440700E+02
-3.703654E-01	-3.764362E-03	1.445000E+02
-3.703731E-01	-3.764362E-03	1.449500E+02
-3.703731E-01	-3.764362E-03	1.453900E+02
-3.703731E-01	-3.764439E-03	1.458400E+02
-3.703731E-01	-3.764209E-03	1.462800E+02
-3.703654E-01	-3.764209E-03	1.467300E+02
-3.703731E-01	-3.764209E-03	1.471700E+02
-3.703731E-01	-3.764055E-03	1.476000E+02
-3.703731E-01	-3.764055E-03	1.480500E+02
-3.703654E-01	-3.764132E-03	1.484900E+02
-3.703654E-01	-3.764516E-03	1.489400E+02
-3.703577E-01	-3.764823E-03	1.498300E+02
-3.703577E-01	-3.764900E-03	1.502700E+02
-3.703654E-01	-3.764977E-03	1.507400E+02
-3.703577E-01	-3.765130E-03	1.511900E+02
-3.703654E-01	-3.764900E-03	1.516300E+02
-3.703654E-01	-3.764900E-03	1.520800E+02
-3.703654E-01	-3.765053E-03	1.525200E+02
-3.703577E-01	-3.765207E-03	1.529700E+02
-3.703654E-01	-3.765207E-03	1.534000E+02
-3.703654E-01	-3.765053E-03	1.538500E+02
-3.703654E-01	-3.765130E-03	1.542900E+02
-3.703577E-01	-3.765053E-03	1.547400E+02
-3.703577E-01	-3.765207E-03	1.551800E+02
-3.703577E-01	-3.765360E-03	1.556200E+02
-3.703654E-01	-3.765284E-03	1.560700E+02
-3.703577E-01	-3.765514E-03	1.565000E+02
-3.703654E-01	-3.765514E-03	1.569500E+02
-3.703577E-01	-3.765744E-03	1.573900E+02
-3.703577E-01	-3.765744E-03	1.578400E+02
-3.703577E-01	-3.765744E-03	1.582800E+02
-3.703654E-01	-3.765130E-03	1.587200E+02
-3.703654E-01	-3.765206E-03	1.596000E+02
-3.703731E-01	-3.765053E-03	1.600500E+02
-3.703654E-01	-3.765206E-03	1.604800E+02
-3.703654E-01	-3.765284E-03	1.609300E+02
-3.703654E-01	-3.765284E-03	1.613800E+02
-3.703731E-01	-3.765437E-03	1.618300E+02
-3.703654E-01	-3.765513E-03	1.622600E+02
-3.703654E-01	-3.765590E-03	1.627000E+02
-3.703654E-01	-3.765437E-03	1.631500E+02
-3.703654E-01	-3.765437E-03	1.635800E+02
-3.703731E-01	-3.765360E-03	1.640300E+02
-3.703654E-01	-3.765437E-03	1.644700E+02
-3.703654E-01	-3.765360E-03	1.649200E+02
-3.703654E-01	-3.765437E-03	1.653600E+02
-3.703731E-01	-3.765284E-03	1.658100E+02
-3.703654E-01	-3.765360E-03	1.662500E+02
-3.703654E-01	-3.765513E-03	1.666800E+02
-3.703654E-01	-3.765667E-03	1.671300E+02
-3.703654E-01	-3.765821E-03	1.675700E+02
-3.703654E-01	-3.765743E-03	1.680200E+02
-3.703578E-01	-3.765821E-03	1.684600E+02
-3.703654E-01	-3.765590E-03	1.689100E+02
-3.703578E-01	-3.765667E-03	1.697900E+02
-3.703654E-01	-3.765744E-03	1.702300E+02
-3.703654E-01	-3.765667E-03	1.706700E+02
-3.703654E-01	-3.765667E-03	1.711200E+02
-3.703654E-01	-3.765667E-03	1.715600E+02
-3.703654E-01	-3.765513E-03	1.720100E+02
-3.703731E-01	-3.765744E-03	1.724400E+02
-3.703731E-01	-3.765821E-03	1.728900E+02
-3.703731E-01	-3.765667E-03	1.733300E+02
-3.703808E-01	-3.765744E-03	1.737800E+02
-3.703808E-01	-3.765744E-03	1.742200E+02
-3.703808E-01	-3.765821E-03	1.746600E+02
-3.703731E-01	-3.765821E-03	1.751100E+02
-3.703731E-01	-3.765590E-03	1.755400E+02
-3.703731E-01	-3.765513E-03	1.760000E+02
-3.703654E-01	-3.765590E-03	1.764300E+02
-3.703731E-01	-3.765590E-03	1.768900E+02
-3.703731E-01	-3.765513E-03	1.773300E+02
-3.703731E-01	-3.765513E-03	1.777800E+02
-3.703654E-01	-3.765437E-03	1.782200E+02
-3.703654E-01	-3.765513E-03	1.786500E+02
-3.703731E-01	-3.765590E-03	1.795400E+02
-3.703654E-01	-3.765667E-03	1.799900E+02
-3.703654E-01	-3.765590E-03	1.804300E+02
-3.703654E-01	-3.765667E-03	1.808800E+02
-3.703654E-01	-3.765590E-03	1.813200E+02
-3.703578E-01	-3.765513E-03	1.817700E+02
-3.703654E-01	-3.765667E-03	1.822000E+02
-3.703654E-01	-3.765743E-03	1.826400E+02
-3.703654E-01	-3.765974E-03	1.830900E+02
-3.703731E-01	-3.765743E-03	1.835300E+02
-3.703654E-01	-3.765743E-03	1.839800E+02
-3.703654E-01	-3.765667E-03	1.844200E+02
-3.703654E-01	-3.765590E-03	1.848700E+02
-3.703654E-01	-3.765590E-03	1.853000E+02
-3.703731E-01	-3.765743E-03	1.857500E+02
-3.703654E-01	-3.765897E-03	1.861900E+02
-3.703654E-01	-3.766051E-03	1.866300E+02
-3.703654E-01	-3.765974E-03	1.870800E+02
-3.703731E-01	-3.766051E-03	1.875200E+02
-3.703808E-01	-3.766128E-03	1.879700E+02
-3.703808E-01	-3.766051E-03	1.884100E+02
-3.703731E-01	-3.767048E-03	1.888500E+02
-3.703654E-01	-3.766972E-03	1.897400E+02
-3.703731E-01	-3.766819E-03	1.901900E+02
-3.703654E-01	-3.766665E-03	1.906200E+02
-3.703654E-01	-3.766665E-03	1.910700E+02
-3.703654E-01	-3.766588E-03	1.915200E+02
-3.703654E-01	-3.766588E-03	1.919700E+02
-3.703654E-01	-3.766742E-03	1.924000E+02
-3.703731E-01	-3.766742E-03	1.928500E+02
-3.703654E-01	-3.766665E-03	1.932900E+02
-3.703654E-01	-3.766665E-03	1.937400E+02
-3.703654E-01	-3.766281E-03	1.941800E+02
-3.703654E-01	-3.766281E-03	1.946100E+02
-3.703654E-01	-3.766434E-03	1.950600E+02
-3.703731E-01	-3.766512E-03	1.955000E+02
-3.703731E-01	-3.766358E-03	1.959500E+02
-3.703731E-01	-3.766512E-03	1.963800E+02
-3.703731E-01	-3.766588E-03	1.968300E+02
-3.703731E-01	-3.766358E-03	1.972700E+02
-3.703731E-01	-3.766204E-03	1.977100E+02
-3.703731E-01	-3.766204E-03	1.981600E+02
-3.703731E-01	-3.766204E-03	1.985900E+02
-3.703578E-01	-3.766128E-03	1.994800E+02
-3.703654E-01	-3.766204E-03	1.999300E+02
-3.703731E-01	-3.766281E-03	2.003700E+02
-3.703731E-01	-3.766281E-03	2.008200E+02
-3.703731E-01	-3.766051E-03	2.012600E+02
-3.703808E-01	-3.765974E-03	2.017000E+02
-3.703731E-01	-3.765897E-03	2.021500E+02
-3.703654E-01	-3.765974E-03	2.025900E+02
-3.703654E-01	-3.766051E-03	2.030400E+02
-3.703654E-01	-3.766128E-03	2.034800E+02
-3.703654E-01	-3.765974E-03	2.039300E+02
-3.703578E-01	-3.766128E-03	2.043600E+02
-3.703578E-01	-3.765974E-03	2.048100E+02
-3.703654E-01	-3.765974E-03	2.052500E+02
-3.703731E-01	-3.765821E-03	2.056900E+02
-3.703731E-01	-3.765744E-03	2.061400E+02
-3.703731E-01	-3.765974E-03	2.065800E+02
-3.703654E-01	-3.765897E-03	2.070300E+02
-3.703654E-01	-3.765974E-03	2.074600E+02
-3.703654E-01	-3.765821E-03	2.079100E+02
-3.703654E-01	-3.765667E-03	2.083500E+02
-3.703654E-01	-3.765744E-03	2.088000E+02
-3.703654E-01	-3.765590E-03	2.096700E+02
-3.703654E-01	-3.765514E-03	2.101200E+02
-3.703654E-01	-3.765590E-03	2.105600E+02
-3.703654E-01	-3.765514E-03	2.110100E+02
-3.703654E-01	-3.765590E-03	2.114500E+02
-3.703731E-01	-3.765667E-03	2.119000E+02
-3.703654E-01	-3.765667E-03	2.123400E+02
-3.703654E-01	-3.765590E-03	2.127900E+02
-3.703654E-01	-3.765514E-03	2.132300E+02
-3.703731E-01	-3.765667E-03	2.136600E+02
-3.703808E-01	-3.765744E-03	2.141100E+02
-3.703731E-01	-3.765667E-03	2.145500E+02
-3.703731E-01	-3.765514E-03	2.150000E+02
-3.703731E-01	-3.765514E-03	2.154400E+02
-3.703654E-01	-3.765590E-03	2.158900E+02
-3.703731E-01	-3.765590E-03	2.163300E+02
-3.703731E-01	-3.765667E-03	2.167800E+02
-3.703731E-01	-3.765514E-03	2.172200E+02
-3.703654E-01	-3.765360E-03	2.176500E+02
-3.703731E-01	-3.765360E-03	2.181000E+02
-3.703731E-01	-3.764669E-03	2.185400E+02
-3.703731E-01	-3.764746E-03	2.194200E+02
-3.703731E-01	-3.764516E-03	2.198700E+02
-3.703731E-01	-3.764439E-03	2.203100E+02
-3.703731E-01	-3.764362E-03	2.207600E+02
-3.703654E-01	-3.764439E-03	2.212000E+02
-3.703654E-01	-3.764516E-03	2.216400E+02
-3.703731E-01	-3.764439E-03	2.220900E+02
-3.703654E-01	-3.764516E-03	2.225300E+02
-3.703731E-01	-3.764285E-03	2.229800E+02
-3.703654E-01	-3.764132E-03	2.234100E+02
-3.703654E-01	-3.764132E-03	2.238600E+02
-3.703654E-01	-3.764132E-03	2.243000E+02
-3.703731E-01	-3.764132E-03	2.247500E+02
-3.703731E-01	-3.764132E-03	2.251900E+02
-3.703731E-01	-3.764285E-03	2.256300E+02
-3.703654E-01	-3.764362E-03	2.260800E+02
-3.703654E-01	-3.764209E-03	2.265200E+02
-3.703731E-01	-3.764285E-03	2.269600E+02
-3.703654E-01	-3.764285E-03	2.274000E+02
-3.703654E-01	-3.764132E-03	2.278500E+02
-3.703578E-01	-3.764132E-03	2.282900E+02
-3.703731E-01	-3.764209E-03	2.287400E+02
-3.703654E-01	-3.763979E-03	2.296100E+02
