CORRW ASCII
  CorrWare for Windows: Version 3.5f
  Potentiostatic	[0.075 Ref,1.5 Min][default]	IV_+75mV_1.cor
  Date: 11-05-2019    Time: 20:15:40
   
   
  Open Circuit Potential (V): 0.0031
  Begin Information:          Cell Information
    Surface Area:             1
    Density:                  0
    Weight:                   0
    Polarity:                 0
    PolarityI:                0
    Corrosion Unit Type:      0
    Reference Type:           0
    Reference Potential:      0
    User-Defined Potential:   0
    Stern-Geary:              26
  End Information:            Cell Information
  Begin Pstat:                1287
    Pstat Title:              Instrument #1
    Booster Type:             0
    Booster Name:             None
    Current Range:            0
    Current Limit:            0
    Current LimitType:        0
    Sweep Type:               0
    Use Error Beep:           1
    Auxilary Type:            0
    iR Comp. Type:            0
    iR Ohms:                  0
    iR Time:                  27
    iR Ratio:                 255
    LP Filter Type:           2
    Drift Correction:         1
    Null Correction:          0
    Pstat Bandwidth Type:     2
    Gstat Bandwidth Type:     2
    External Input:           0
    SafetyMinV:               0
    SafetyMaxV:               10
    SafetyMinI:               0
    SafetyMaxI:               4
    SafetyMinQ:               0
    SafetyMaxQ:               1000
    SafetyMinT:               0
    SafetyMaxT:               50
    SafetyChT:                0
    SafetyMinVUse:            0
    SafetyMaxVUse:            0
    SafetyMinIUse:            0
    SafetyMaxIUse:            0
    SafetyMinQUse:            0
    SafetyMaxQUse:            0
    SafetyMinTUse:            0
    SafetyMaxTUse:            0
  End Pstat:                  1287
  Begin Experiment:           Potentiostatic	[0.075 Ref,1.5 Min][default]	IV_+75mV_1.cor
    Data File:                Z:\191101_Amezawa\fr_XAS\DPB2\700C_100%O2\Electrochem\IV_+75mV_1.cor
    Data Append:              0
    Comment Lines:            0
    Potential:                0.075
    Potential Type:           1
    Total Time:               1.5
    Time Units:               1
    Time Marker:              -1
    Measure Rate Type:        1
    Measure Rate #1:          2000
    Measure Rate #2:          10
    Measure Rate #3:          0.1
    Measure Rate #4:          2
    Use Threshold:            0
    Threshold I_Min:          -15
    Threshold I_Max:          15
    Threshold Delta:          5
    Threshold Time:           60
    Copy AuxV:                0
    Axes Type:                1
    Use Custom Pstat:         0
  End Experiment:             Potentiostatic	[0.075 Ref,1.5 Min][default]	IV_+75mV_1.cor
  Data Points:                89
  E(Volts)	I(A/cm2)	T(Seconds)
End Comments
7.514226E-02	2.172088E-04	0.000000E+00
7.514150E-02	2.114566E-04	8.800000E-01
7.514072E-02	2.099436E-04	1.320000E+00
7.514072E-02	2.087533E-04	1.760000E+00
7.514072E-02	2.077318E-04	2.210000E+00
7.514226E-02	2.069024E-04	2.640000E+00
7.514072E-02	2.061728E-04	3.100000E+00
7.514072E-02	2.055124E-04	3.530000E+00
7.514150E-02	2.048980E-04	3.980000E+00
7.514226E-02	2.044372E-04	4.420000E+00
7.513996E-02	2.039380E-04	4.870000E+00
7.514072E-02	2.035080E-04	5.310000E+00
7.514072E-02	2.030932E-04	5.750000E+00
7.514150E-02	2.026939E-04	6.200000E+00
7.514226E-02	2.023867E-04	6.640000E+00
7.514072E-02	2.020411E-04	7.090000E+00
7.514226E-02	2.017416E-04	7.520000E+00
7.514072E-02	2.014574E-04	7.970000E+00
7.513919E-02	2.011426E-04	8.410000E+00
7.514150E-02	2.008661E-04	8.860000E+00
7.514303E-02	2.005819E-04	9.300000E+00
7.514150E-02	2.003438E-04	9.740000E+00
7.513996E-02	1.998293E-04	1.062000E+01
7.514072E-02	1.996296E-04	1.107000E+01
7.514072E-02	1.994299E-04	1.151000E+01
7.514226E-02	1.991996E-04	1.196000E+01
7.514226E-02	1.990076E-04	1.240000E+01
7.513996E-02	1.987849E-04	1.285000E+01
7.514150E-02	1.986389E-04	1.328000E+01
7.514072E-02	1.984162E-04	1.372000E+01
7.514150E-02	1.982319E-04	1.417000E+01
7.514226E-02	1.980706E-04	1.461000E+01
7.514150E-02	1.978556E-04	1.507000E+01
7.514072E-02	1.976789E-04	1.550000E+01
7.513996E-02	1.975330E-04	1.595000E+01
7.514072E-02	1.973487E-04	1.639000E+01
7.514072E-02	1.971874E-04	1.682000E+01
7.514072E-02	1.970262E-04	1.727000E+01
7.513996E-02	1.968879E-04	1.771000E+01
7.513996E-02	1.967343E-04	1.816000E+01
7.513996E-02	1.966115E-04	1.860000E+01
7.514150E-02	1.964271E-04	1.905000E+01
7.514072E-02	1.962582E-04	1.949000E+01
7.513919E-02	1.960815E-04	1.994000E+01
7.513919E-02	1.957897E-04	2.081000E+01
7.514150E-02	1.956822E-04	2.126000E+01
7.513843E-02	1.955670E-04	2.170000E+01
7.513766E-02	1.954364E-04	2.214000E+01
7.513996E-02	1.953136E-04	2.258000E+01
7.513919E-02	1.951984E-04	2.303000E+01
7.513996E-02	1.950755E-04	2.347000E+01
7.513843E-02	1.949526E-04	2.392000E+01
7.513843E-02	1.948220E-04	2.436000E+01
7.513919E-02	1.947069E-04	2.480000E+01
7.514073E-02	1.945916E-04	2.525000E+01
7.513919E-02	1.944841E-04	2.568000E+01
7.513919E-02	1.943766E-04	2.613000E+01
7.513919E-02	1.942768E-04	2.657000E+01
7.513843E-02	1.941693E-04	2.702000E+01
7.513919E-02	1.940464E-04	2.746000E+01
7.513996E-02	1.939466E-04	2.791000E+01
7.513843E-02	1.938160E-04	2.835000E+01
7.513919E-02	1.937315E-04	2.879000E+01
7.513843E-02	1.936317E-04	2.924000E+01
7.514072E-02	1.935702E-04	2.968000E+01
7.514072E-02	1.933706E-04	3.056000E+01
7.513996E-02	1.932784E-04	3.100000E+01
7.514072E-02	1.931939E-04	3.144000E+01
7.514150E-02	1.930941E-04	3.189000E+01
7.514072E-02	1.929942E-04	3.233000E+01
7.514150E-02	1.929098E-04	3.277000E+01
7.514150E-02	1.928099E-04	3.322000E+01
7.514072E-02	1.927101E-04	3.365000E+01
7.513996E-02	1.926410E-04	3.410000E+01
7.514072E-02	1.925488E-04	3.454000E+01
7.513996E-02	1.924567E-04	3.499000E+01
7.514072E-02	1.923722E-04	3.543000E+01
7.514226E-02	1.922800E-04	3.588000E+01
7.514072E-02	1.921802E-04	3.632000E+01
7.513996E-02	1.920957E-04	3.675000E+01
7.514072E-02	1.920112E-04	3.720000E+01
7.514150E-02	1.919498E-04	3.764000E+01
7.514226E-02	1.918653E-04	3.809000E+01
7.514072E-02	1.917732E-04	3.853000E+01
7.514226E-02	1.916810E-04	3.898000E+01
7.514072E-02	1.915965E-04	3.942000E+01
7.514303E-02	1.914967E-04	3.987000E+01
7.513996E-02	1.913431E-04	4.074000E+01
7.514150E-02	1.912663E-04	4.119000E+01
