CORRW ASCII
  CorrWare for Windows: Version 3.5f
  Potentiostatic	[0.05 Ref,1.5 Min][default]	IV_+50mV_1.cor
  Date: 11-05-2019    Time: 20:15:04
   
   
  Open Circuit Potential (V): 0.0031
  Begin Information:          Cell Information
    Surface Area:             1
    Density:                  0
    Weight:                   0
    Polarity:                 0
    PolarityI:                0
    Corrosion Unit Type:      0
    Reference Type:           0
    Reference Potential:      0
    User-Defined Potential:   0
    Stern-Geary:              26
  End Information:            Cell Information
  Begin Pstat:                1287
    Pstat Title:              Instrument #1
    Booster Type:             0
    Booster Name:             None
    Current Range:            0
    Current Limit:            0
    Current LimitType:        0
    Sweep Type:               0
    Use Error Beep:           1
    Auxilary Type:            0
    iR Comp. Type:            0
    iR Ohms:                  0
    iR Time:                  27
    iR Ratio:                 255
    LP Filter Type:           2
    Drift Correction:         1
    Null Correction:          0
    Pstat Bandwidth Type:     2
    Gstat Bandwidth Type:     2
    External Input:           0
    SafetyMinV:               0
    SafetyMaxV:               10
    SafetyMinI:               0
    SafetyMaxI:               4
    SafetyMinQ:               0
    SafetyMaxQ:               1000
    SafetyMinT:               0
    SafetyMaxT:               50
    SafetyChT:                0
    SafetyMinVUse:            0
    SafetyMaxVUse:            0
    SafetyMinIUse:            0
    SafetyMaxIUse:            0
    SafetyMinQUse:            0
    SafetyMaxQUse:            0
    SafetyMinTUse:            0
    SafetyMaxTUse:            0
  End Pstat:                  1287
  Begin Experiment:           Potentiostatic	[0.05 Ref,1.5 Min][default]	IV_+50mV_1.cor
    Data File:                Z:\191101_Amezawa\fr_XAS\DPB2\700C_100%O2\Electrochem\IV_+50mV_1.cor
    Data Append:              0
    Comment Lines:            0
    Potential:                0.05
    Potential Type:           1
    Total Time:               1.5
    Time Units:               1
    Time Marker:              -1
    Measure Rate Type:        1
    Measure Rate #1:          2000
    Measure Rate #2:          10
    Measure Rate #3:          0.1
    Measure Rate #4:          2
    Use Threshold:            0
    Threshold I_Min:          -15
    Threshold I_Max:          15
    Threshold Delta:          5
    Threshold Time:           60
    Copy AuxV:                0
    Axes Type:                1
    Use Custom Pstat:         0
  End Experiment:             Potentiostatic	[0.05 Ref,1.5 Min][default]	IV_+50mV_1.cor
  Data Points:                56
  E(Volts)	I(A/cm2)	T(Seconds)
End Comments
5.014550E-02	2.242051E-04	0.000000E+00
5.014627E-02	1.787712E-04	8.800000E-01
5.014704E-02	1.719054E-04	1.320000E+00
5.014627E-02	1.673282E-04	1.760000E+00
5.014550E-02	1.639107E-04	2.210000E+00
5.014550E-02	1.612842E-04	2.650000E+00
5.014704E-02	1.591339E-04	3.100000E+00
5.014857E-02	1.573521E-04	3.530000E+00
5.014704E-02	1.557931E-04	3.980000E+00
5.014704E-02	1.544645E-04	4.420000E+00
5.014704E-02	1.532895E-04	4.870000E+00
5.014704E-02	1.522374E-04	5.310000E+00
5.014627E-02	1.512851E-04	5.750000E+00
5.014704E-02	1.504403E-04	6.200000E+00
5.014704E-02	1.496800E-04	6.630000E+00
5.014857E-02	1.489504E-04	7.080000E+00
5.014704E-02	1.482822E-04	7.520000E+00
5.014781E-02	1.476602E-04	7.970000E+00
5.015088E-02	1.490195E-04	8.730000E+00
5.014627E-02	1.482899E-04	9.180000E+00
5.014781E-02	1.475834E-04	9.620000E+00
5.015472E-02	1.473453E-04	1.098000E+01
4.832323E-02	1.396857E-04	1.148000E+01
5.015855E-02	1.471687E-04	1.219000E+01
5.015932E-02	1.462932E-04	1.296000E+01
5.014934E-02	1.451566E-04	1.348000E+01
5.008717E-02	1.490349E-04	1.439000E+01
5.014857E-02	1.445729E-04	1.500000E+01
5.015472E-02	1.445498E-04	1.556000E+01
4.844297E-02	1.376034E-04	1.610000E+01
5.014857E-02	1.447572E-04	1.686000E+01
5.015010E-02	1.439662E-04	1.776000E+01
4.843146E-02	1.371287E-04	1.828000E+01
5.014934E-02	1.439815E-04	1.879000E+01
4.847905E-02	1.365596E-04	1.935000E+01
5.018082E-02	1.437665E-04	2.006000E+01
5.014857E-02	1.422613E-04	2.140000E+01
5.014857E-02	1.418849E-04	2.210000E+01
4.855044E-02	1.351324E-04	2.264000E+01
4.852434E-02	1.351893E-04	2.309000E+01
4.854967E-02	1.352077E-04	2.352000E+01
4.861108E-02	1.353736E-04	2.397000E+01
5.014781E-02	1.422075E-04	2.466000E+01
5.015011E-02	1.408174E-04	2.546000E+01
4.857577E-02	1.340924E-04	2.599000E+01
4.998431E-02	1.446958E-04	2.682000E+01
4.859957E-02	1.337729E-04	2.735000E+01
5.015164E-02	1.400495E-04	2.799000E+01
5.018388E-02	1.393890E-04	2.855000E+01
5.004034E-02	1.393352E-04	2.950000E+01
5.014857E-02	1.390818E-04	3.036000E+01
5.014857E-02	1.376226E-04	3.139000E+01
5.016853E-02	1.375842E-04	3.197000E+01
4.869090E-02	1.320915E-04	3.251000E+01
5.015318E-02	1.380604E-04	3.329000E+01
5.019002E-02	1.374767E-04	3.384000E+01
