CORRW ASCII
  CorrWare for Windows: Version 3.5f
  Potentiostatic	[0.1 Ref,1.5 Min][default]	IV_+100mV_1.cor
  Date: 11-05-2019    Time: 20:16:23
   
   
  Open Circuit Potential (V): 0.0031
  Begin Information:          Cell Information
    Surface Area:             1
    Density:                  0
    Weight:                   0
    Polarity:                 0
    PolarityI:                0
    Corrosion Unit Type:      0
    Reference Type:           0
    Reference Potential:      0
    User-Defined Potential:   0
    Stern-Geary:              26
  End Information:            Cell Information
  Begin Pstat:                1287
    Pstat Title:              Instrument #1
    Booster Type:             0
    Booster Name:             None
    Current Range:            0
    Current Limit:            0
    Current LimitType:        0
    Sweep Type:               0
    Use Error Beep:           1
    Auxilary Type:            0
    iR Comp. Type:            0
    iR Ohms:                  0
    iR Time:                  27
    iR Ratio:                 255
    LP Filter Type:           2
    Drift Correction:         1
    Null Correction:          0
    Pstat Bandwidth Type:     2
    Gstat Bandwidth Type:     2
    External Input:           0
    SafetyMinV:               0
    SafetyMaxV:               10
    SafetyMinI:               0
    SafetyMaxI:               4
    SafetyMinQ:               0
    SafetyMaxQ:               1000
    SafetyMinT:               0
    SafetyMaxT:               50
    SafetyChT:                0
    SafetyMinVUse:            0
    SafetyMaxVUse:            0
    SafetyMinIUse:            0
    SafetyMaxIUse:            0
    SafetyMinQUse:            0
    SafetyMaxQUse:            0
    SafetyMinTUse:            0
    SafetyMaxTUse:            0
  End Pstat:                  1287
  Begin Experiment:           Potentiostatic	[0.1 Ref,1.5 Min][default]	IV_+100mV_1.cor
    Data File:                Z:\191101_Amezawa\fr_XAS\DPB2\700C_100%O2\Electrochem\IV_+100mV_1.cor
    Data Append:              0
    Comment Lines:            0
    Potential:                0.1
    Potential Type:           1
    Total Time:               1.5
    Time Units:               1
    Time Marker:              -1
    Measure Rate Type:        1
    Measure Rate #1:          2000
    Measure Rate #2:          10
    Measure Rate #3:          0.1
    Measure Rate #4:          2
    Use Threshold:            0
    Threshold I_Min:          -15
    Threshold I_Max:          15
    Threshold Delta:          5
    Threshold Time:           60
    Copy AuxV:                0
    Axes Type:                1
    Use Custom Pstat:         0
  End Experiment:             Potentiostatic	[0.1 Ref,1.5 Min][default]	IV_+100mV_1.cor
  Data Points:                64
  E(Volts)	I(A/cm2)	T(Seconds)
End Comments
1.001306E-01	2.760516E-04	0.000000E+00
1.001298E-01	2.699155E-04	8.800000E-01
1.001298E-01	2.682259E-04	1.320000E+00
1.001291E-01	2.669127E-04	1.760000E+00
1.001298E-01	2.657914E-04	2.210000E+00
1.001313E-01	2.648852E-04	2.650000E+00
1.001298E-01	2.640634E-04	3.090000E+00
1.001313E-01	2.633799E-04	3.530000E+00
1.001291E-01	2.627271E-04	3.980000E+00
1.001291E-01	2.621358E-04	4.430000E+00
1.001298E-01	2.615982E-04	4.880000E+00
1.001298E-01	2.611144E-04	5.320000E+00
1.001298E-01	2.606843E-04	5.750000E+00
1.001298E-01	2.602696E-04	6.200000E+00
1.001283E-01	2.599010E-04	6.640000E+00
1.001283E-01	2.595400E-04	7.090000E+00
1.001291E-01	2.592175E-04	7.530000E+00
1.001306E-01	2.588949E-04	7.980000E+00
1.001306E-01	2.586030E-04	8.420000E+00
1.001291E-01	2.583573E-04	8.870000E+00
1.001283E-01	2.580732E-04	9.310000E+00
1.001298E-01	2.578121E-04	9.740000E+00
1.001283E-01	2.573282E-04	1.063000E+01
1.001298E-01	2.571362E-04	1.108000E+01
1.001291E-01	2.571285E-04	1.152000E+01
1.001313E-01	2.570594E-04	1.197000E+01
1.001298E-01	2.568905E-04	1.241000E+01
1.001306E-01	2.567292E-04	1.286000E+01
1.001275E-01	2.565525E-04	1.330000E+01
1.001275E-01	2.563912E-04	1.374000E+01
1.001291E-01	2.562223E-04	1.419000E+01
1.001283E-01	2.560534E-04	1.462000E+01
1.001291E-01	2.558921E-04	1.507000E+01
1.001283E-01	2.557692E-04	1.551000E+01
1.001283E-01	2.559151E-04	1.596000E+01
1.001298E-01	2.557922E-04	1.640000E+01
1.001275E-01	2.557769E-04	1.685000E+01
1.001298E-01	2.556694E-04	1.728000E+01
1.001283E-01	2.555542E-04	1.773000E+01
1.001283E-01	2.554006E-04	1.817000E+01
1.001298E-01	2.552700E-04	1.861000E+01
1.001291E-01	2.551318E-04	1.906000E+01
1.001298E-01	2.550396E-04	1.950000E+01
1.001275E-01	2.549091E-04	1.995000E+01
1.001275E-01	2.546556E-04	2.082000E+01
1.001275E-01	2.546249E-04	2.127000E+01
1.001283E-01	2.545404E-04	2.171000E+01
1.001298E-01	2.544099E-04	2.216000E+01
1.001283E-01	2.543101E-04	2.260000E+01
1.001283E-01	2.541795E-04	2.305000E+01
1.001291E-01	2.540950E-04	2.348000E+01
1.001283E-01	2.539875E-04	2.394000E+01
1.001313E-01	2.539107E-04	2.438000E+01
1.001283E-01	2.537955E-04	2.482000E+01
1.001283E-01	2.536956E-04	2.527000E+01
1.001267E-01	2.536189E-04	2.570000E+01
1.001275E-01	2.535267E-04	2.615000E+01
1.001275E-01	2.534345E-04	2.659000E+01
1.001275E-01	2.532579E-04	2.704000E+01
1.001267E-01	2.530659E-04	2.748000E+01
1.001283E-01	2.529430E-04	2.793000E+01
1.001298E-01	2.528278E-04	2.837000E+01
1.001291E-01	2.527280E-04	2.880000E+01
1.001283E-01	2.526589E-04	2.925000E+01
