CORRW ASCII
  CorrWare for Windows: Version 3.5f
  Potentiostatic	[-0.35 Ref,1.5 Min][default]	IV_-350mV_1.cor
  Date: 11-06-2019    Time: 05:56:31
   
   
  Open Circuit Potential (V): 0.0033
  Begin Information:          Cell Information
    Surface Area:             1
    Density:                  0
    Weight:                   0
    Polarity:                 0
    PolarityI:                0
    Corrosion Unit Type:      0
    Reference Type:           0
    Reference Potential:      0
    User-Defined Potential:   0
    Stern-Geary:              26
  End Information:            Cell Information
  Begin Pstat:                1287
    Pstat Title:              Instrument #1
    Booster Type:             0
    Booster Name:             None
    Current Range:            0
    Current Limit:            0
    Current LimitType:        0
    Sweep Type:               0
    Use Error Beep:           1
    Auxilary Type:            0
    iR Comp. Type:            0
    iR Ohms:                  0
    iR Time:                  27
    iR Ratio:                 255
    LP Filter Type:           2
    Drift Correction:         1
    Null Correction:          0
    Pstat Bandwidth Type:     2
    Gstat Bandwidth Type:     2
    External Input:           0
    SafetyMinV:               0
    SafetyMaxV:               10
    SafetyMinI:               0
    SafetyMaxI:               4
    SafetyMinQ:               0
    SafetyMaxQ:               1000
    SafetyMinT:               0
    SafetyMaxT:               50
    SafetyChT:                0
    SafetyMinVUse:            0
    SafetyMaxVUse:            0
    SafetyMinIUse:            0
    SafetyMaxIUse:            0
    SafetyMinQUse:            0
    SafetyMaxQUse:            0
    SafetyMinTUse:            0
    SafetyMaxTUse:            0
  End Pstat:                  1287
  Begin Experiment:           Potentiostatic	[-0.35 Ref,1.5 Min][default]	IV_-350mV_1.cor
    Data File:                Z:\191101_Amezawa\fr_XAS\DPB2\700C_100%O2\Electrochem\IV_-350mV_1.cor
    Data Append:              0
    Comment Lines:            0
    Potential:                -0.35
    Potential Type:           1
    Total Time:               1.5
    Time Units:               1
    Time Marker:              -1
    Measure Rate Type:        1
    Measure Rate #1:          2000
    Measure Rate #2:          10
    Measure Rate #3:          0.1
    Measure Rate #4:          2
    Use Threshold:            0
    Threshold I_Min:          -15
    Threshold I_Max:          15
    Threshold Delta:          5
    Threshold Time:           60
    Copy AuxV:                0
    Axes Type:                1
    Use Custom Pstat:         0
  End Experiment:             Potentiostatic	[-0.35 Ref,1.5 Min][default]	IV_-350mV_1.cor
  Data Points:                195
  E(Volts)	I(A/cm2)	T(Seconds)
End Comments
-3.345913E-01	-2.313476E-03	0.000000E+00
-3.503288E-01	-2.427444E-03	8.800000E-01
-3.503288E-01	-2.438725E-03	1.330000E+00
-3.503288E-01	-2.460214E-03	1.780000E+00
-3.503288E-01	-2.481857E-03	2.230000E+00
-3.503365E-01	-2.499815E-03	2.670000E+00
-3.503288E-01	-2.513860E-03	3.120000E+00
-3.503365E-01	-2.524374E-03	3.560000E+00
-3.503288E-01	-2.532356E-03	3.990000E+00
-3.503288E-01	-2.539033E-03	4.440000E+00
-3.503288E-01	-2.544251E-03	4.880000E+00
-3.503288E-01	-2.549010E-03	5.330000E+00
-3.503365E-01	-2.553077E-03	5.760000E+00
-3.503365E-01	-2.556761E-03	6.210000E+00
-3.503288E-01	-2.560215E-03	6.660000E+00
-3.503365E-01	-2.563284E-03	7.110000E+00
-3.503365E-01	-2.566201E-03	7.550000E+00
-3.503365E-01	-2.569117E-03	7.980000E+00
-3.503365E-01	-2.571880E-03	8.430000E+00
-3.503288E-01	-2.574797E-03	8.870000E+00
-3.503211E-01	-2.580092E-03	9.760000E+00
-3.503211E-01	-2.582701E-03	1.021000E+01
-3.503211E-01	-2.585464E-03	1.065000E+01
-3.503288E-01	-2.588073E-03	1.110000E+01
-3.503211E-01	-2.590683E-03	1.153000E+01
-3.503288E-01	-2.592986E-03	1.197000E+01
-3.503211E-01	-2.595518E-03	1.242000E+01
-3.503288E-01	-2.597897E-03	1.286000E+01
-3.503288E-01	-2.600276E-03	1.331000E+01
-3.503211E-01	-2.602885E-03	1.375000E+01
-3.503211E-01	-2.605341E-03	1.420000E+01
-3.503211E-01	-2.607567E-03	1.464000E+01
-3.503288E-01	-2.610100E-03	1.509000E+01
-3.503211E-01	-2.612479E-03	1.552000E+01
-3.503288E-01	-2.615011E-03	1.596000E+01
-3.503288E-01	-2.617314E-03	1.641000E+01
-3.503211E-01	-2.619693E-03	1.685000E+01
-3.503288E-01	-2.622072E-03	1.731000E+01
-3.503288E-01	-2.624375E-03	1.774000E+01
-3.503288E-01	-2.626600E-03	1.820000E+01
-3.503288E-01	-2.629056E-03	1.863000E+01
-3.503212E-01	-2.630974E-03	1.908000E+01
-3.503135E-01	-2.635119E-03	1.995000E+01
-3.503212E-01	-2.637575E-03	2.040000E+01
-3.503212E-01	-2.639801E-03	2.084000E+01
-3.503212E-01	-2.642026E-03	2.128000E+01
-3.503212E-01	-2.644252E-03	2.172000E+01
-3.503212E-01	-2.646631E-03	2.217000E+01
-3.503212E-01	-2.648933E-03	2.261000E+01
-3.503212E-01	-2.651082E-03	2.307000E+01
-3.503212E-01	-2.653461E-03	2.351000E+01
-3.503212E-01	-2.655457E-03	2.394000E+01
-3.503212E-01	-2.657682E-03	2.439000E+01
-3.503212E-01	-2.659678E-03	2.483000E+01
-3.503135E-01	-2.661750E-03	2.528000E+01
-3.503212E-01	-2.663668E-03	2.572000E+01
-3.503212E-01	-2.665971E-03	2.617000E+01
-3.503212E-01	-2.667890E-03	2.661000E+01
-3.503212E-01	-2.669885E-03	2.706000E+01
-3.503212E-01	-2.672110E-03	2.750000E+01
-3.503212E-01	-2.674029E-03	2.794000E+01
-3.503212E-01	-2.676101E-03	2.839000E+01
-3.503211E-01	-2.678480E-03	2.882000E+01
-3.503288E-01	-2.682548E-03	2.971000E+01
-3.503211E-01	-2.684467E-03	3.016000E+01
-3.503211E-01	-2.686385E-03	3.060000E+01
-3.503288E-01	-2.688381E-03	3.104000E+01
-3.503288E-01	-2.690299E-03	3.148000E+01
-3.503211E-01	-2.692295E-03	3.192000E+01
-3.503288E-01	-2.694290E-03	3.237000E+01
-3.503288E-01	-2.696132E-03	3.281000E+01
-3.503211E-01	-2.697897E-03	3.326000E+01
-3.503288E-01	-2.699893E-03	3.370000E+01
-3.503288E-01	-2.701735E-03	3.414000E+01
-3.503288E-01	-2.703346E-03	3.458000E+01
-3.503211E-01	-2.705188E-03	3.503000E+01
-3.503288E-01	-2.707184E-03	3.547000E+01
-3.503211E-01	-2.708949E-03	3.591000E+01
-3.503211E-01	-2.710484E-03	3.636000E+01
-3.503288E-01	-2.712402E-03	3.680000E+01
-3.503288E-01	-2.714321E-03	3.725000E+01
-3.503288E-01	-2.716163E-03	3.769000E+01
-3.503288E-01	-2.717851E-03	3.814000E+01
-3.503288E-01	-2.719617E-03	3.857000E+01
-3.503211E-01	-2.720921E-03	3.901000E+01
-3.503211E-01	-2.724068E-03	3.989000E+01
-3.503288E-01	-2.726063E-03	4.034000E+01
-3.503211E-01	-2.727751E-03	4.078000E+01
-3.503211E-01	-2.729593E-03	4.123000E+01
-3.503288E-01	-2.731282E-03	4.167000E+01
-3.503288E-01	-2.732817E-03	4.212000E+01
-3.503288E-01	-2.734582E-03	4.256000E+01
-3.503288E-01	-2.736270E-03	4.300000E+01
-3.503288E-01	-2.737882E-03	4.344000E+01
-3.503288E-01	-2.739647E-03	4.388000E+01
-3.503288E-01	-2.741182E-03	4.433000E+01
-3.503288E-01	-2.742871E-03	4.477000E+01
-3.503288E-01	-2.744559E-03	4.522000E+01
-3.503288E-01	-2.746247E-03	4.566000E+01
-3.503288E-01	-2.747782E-03	4.611000E+01
-3.503288E-01	-2.749394E-03	4.655000E+01
-3.503288E-01	-2.750929E-03	4.698000E+01
-3.503288E-01	-2.752617E-03	4.743000E+01
-3.503288E-01	-2.754152E-03	4.787000E+01
-3.503288E-01	-2.755687E-03	4.832000E+01
-3.503288E-01	-2.757222E-03	4.876000E+01
-3.503211E-01	-2.758680E-03	4.921000E+01
-3.503211E-01	-2.761443E-03	5.009000E+01
-3.503211E-01	-2.763131E-03	5.053000E+01
-3.503288E-01	-2.764666E-03	5.097000E+01
-3.503288E-01	-2.766278E-03	5.142000E+01
-3.503211E-01	-2.767813E-03	5.186000E+01
-3.503288E-01	-2.769425E-03	5.231000E+01
-3.503288E-01	-2.770729E-03	5.275000E+01
-3.503288E-01	-2.772341E-03	5.319000E+01
-3.503288E-01	-2.773492E-03	5.363000E+01
-3.503288E-01	-2.775027E-03	5.408000E+01
-3.503288E-01	-2.776332E-03	5.452000E+01
-3.503288E-01	-2.777636E-03	5.496000E+01
-3.503288E-01	-2.779172E-03	5.541000E+01
-3.503288E-01	-2.780400E-03	5.584000E+01
-3.503288E-01	-2.781781E-03	5.629000E+01
-3.503365E-01	-2.783163E-03	5.673000E+01
-3.503288E-01	-2.784620E-03	5.718000E+01
-3.503288E-01	-2.785925E-03	5.762000E+01
-3.503288E-01	-2.787306E-03	5.807000E+01
-3.503288E-01	-2.788688E-03	5.851000E+01
-3.503288E-01	-2.790607E-03	5.894000E+01
-3.503211E-01	-2.793370E-03	5.984000E+01
-3.503288E-01	-2.795212E-03	6.031000E+01
-3.503211E-01	-2.796439E-03	6.075000E+01
-3.503288E-01	-2.797667E-03	6.119000E+01
-3.503288E-01	-2.799126E-03	6.163000E+01
-3.503211E-01	-2.800584E-03	6.208000E+01
-3.503288E-01	-2.802119E-03	6.252000E+01
-3.503288E-01	-2.803270E-03	6.296000E+01
-3.503211E-01	-2.804574E-03	6.341000E+01
-3.503211E-01	-2.805956E-03	6.385000E+01
-3.503288E-01	-2.807414E-03	6.429000E+01
-3.503288E-01	-2.808565E-03	6.473000E+01
-3.503211E-01	-2.809640E-03	6.518000E+01
-3.503211E-01	-2.810945E-03	6.562000E+01
-3.503288E-01	-2.812403E-03	6.607000E+01
-3.503211E-01	-2.813707E-03	6.651000E+01
-3.503211E-01	-2.814782E-03	6.695000E+01
-3.503288E-01	-2.816317E-03	6.740000E+01
-3.503288E-01	-2.817621E-03	6.784000E+01
-3.503288E-01	-2.818849E-03	6.829000E+01
-3.503211E-01	-2.820001E-03	6.872000E+01
-3.503288E-01	-2.821075E-03	6.917000E+01
-3.503288E-01	-2.823531E-03	7.006000E+01
-3.503211E-01	-2.824682E-03	7.050000E+01
-3.503288E-01	-2.825757E-03	7.094000E+01
-3.503288E-01	-2.827214E-03	7.139000E+01
-3.503211E-01	-2.828443E-03	7.182000E+01
-3.503211E-01	-2.829364E-03	7.227000E+01
-3.503211E-01	-2.830515E-03	7.272000E+01
-3.503211E-01	-2.831896E-03	7.317000E+01
-3.503211E-01	-2.832970E-03	7.360000E+01
-3.503211E-01	-2.834122E-03	7.405000E+01
-3.503288E-01	-2.835196E-03	7.449000E+01
-3.503288E-01	-2.836117E-03	7.492000E+01
-3.503288E-01	-2.837192E-03	7.537000E+01
-3.503211E-01	-2.838266E-03	7.581000E+01
-3.503211E-01	-2.839417E-03	7.626000E+01
-3.503288E-01	-2.840645E-03	7.670000E+01
-3.503288E-01	-2.841719E-03	7.715000E+01
-3.503288E-01	-2.842948E-03	7.759000E+01
-3.503288E-01	-2.844252E-03	7.803000E+01
-3.503288E-01	-2.845557E-03	7.847000E+01
-3.503211E-01	-2.846017E-03	7.891000E+01
-3.503211E-01	-2.848320E-03	7.979000E+01
-3.503211E-01	-2.849394E-03	8.024000E+01
-3.503288E-01	-2.850469E-03	8.068000E+01
-3.503211E-01	-2.851697E-03	8.113000E+01
-3.503288E-01	-2.852848E-03	8.157000E+01
-3.503211E-01	-2.853922E-03	8.200000E+01
-3.503211E-01	-2.854997E-03	8.245000E+01
-3.503211E-01	-2.855918E-03	8.289000E+01
-3.503211E-01	-2.856915E-03	8.334000E+01
-3.503211E-01	-2.857836E-03	8.378000E+01
-3.503288E-01	-2.859064E-03	8.423000E+01
-3.503211E-01	-2.860062E-03	8.467000E+01
-3.503211E-01	-2.861366E-03	8.512000E+01
-3.503288E-01	-2.862441E-03	8.555000E+01
-3.503211E-01	-2.863362E-03	8.599000E+01
-3.503288E-01	-2.864360E-03	8.644000E+01
-3.503211E-01	-2.865358E-03	8.688000E+01
-3.503211E-01	-2.866278E-03	8.733000E+01
-3.503211E-01	-2.867276E-03	8.777000E+01
-3.503211E-01	-2.868274E-03	8.822000E+01
-3.503288E-01	-2.869041E-03	8.866000E+01
-3.503211E-01	-2.870653E-03	8.911000E+01
-3.503211E-01	-2.872572E-03	8.999000E+01
-3.503211E-01	-2.873493E-03	9.000000E+01
