CORRW ASCII
  CorrWare for Windows: Version 3.5f
  Potentiostatic	[-0.15 Ref,1.5 Min][default]	IV_-150mV_1.cor
  Date: 11-05-2019    Time: 20:11:17
   
   
  Open Circuit Potential (V): 0.0031
  Begin Information:          Cell Information
    Surface Area:             1
    Density:                  0
    Weight:                   0
    Polarity:                 0
    PolarityI:                0
    Corrosion Unit Type:      0
    Reference Type:           0
    Reference Potential:      0
    User-Defined Potential:   0
    Stern-Geary:              26
  End Information:            Cell Information
  Begin Pstat:                1287
    Pstat Title:              Instrument #1
    Booster Type:             0
    Booster Name:             None
    Current Range:            0
    Current Limit:            0
    Current LimitType:        0
    Sweep Type:               0
    Use Error Beep:           1
    Auxilary Type:            0
    iR Comp. Type:            0
    iR Ohms:                  0
    iR Time:                  27
    iR Ratio:                 255
    LP Filter Type:           2
    Drift Correction:         1
    Null Correction:          0
    Pstat Bandwidth Type:     2
    Gstat Bandwidth Type:     2
    External Input:           0
    SafetyMinV:               0
    SafetyMaxV:               10
    SafetyMinI:               0
    SafetyMaxI:               4
    SafetyMinQ:               0
    SafetyMaxQ:               1000
    SafetyMinT:               0
    SafetyMaxT:               50
    SafetyChT:                0
    SafetyMinVUse:            0
    SafetyMaxVUse:            0
    SafetyMinIUse:            0
    SafetyMaxIUse:            0
    SafetyMinQUse:            0
    SafetyMaxQUse:            0
    SafetyMinTUse:            0
    SafetyMaxTUse:            0
  End Pstat:                  1287
  Begin Experiment:           Potentiostatic	[-0.15 Ref,1.5 Min][default]	IV_-150mV_1.cor
    Data File:                Z:\191101_Amezawa\fr_XAS\DPB2\700C_100%O2\Electrochem\IV_-150mV_1.cor
    Data Append:              0
    Comment Lines:            0
    Potential:                -0.15
    Potential Type:           1
    Total Time:               1.5
    Time Units:               1
    Time Marker:              -1
    Measure Rate Type:        1
    Measure Rate #1:          2000
    Measure Rate #2:          10
    Measure Rate #3:          0.1
    Measure Rate #4:          2
    Use Threshold:            0
    Threshold I_Min:          -15
    Threshold I_Max:          15
    Threshold Delta:          5
    Threshold Time:           60
    Copy AuxV:                0
    Axes Type:                1
    Use Custom Pstat:         0
  End Experiment:             Potentiostatic	[-0.15 Ref,1.5 Min][default]	IV_-150mV_1.cor
  Data Points:                108
  E(Volts)	I(A/cm2)	T(Seconds)
End Comments
-1.500949E-01	-8.816987E-04	0.000000E+00
-1.500934E-01	-8.744721E-04	8.800000E-01
-1.500788E-01	-8.731895E-04	1.320000E+00
-1.500965E-01	-8.728977E-04	1.760000E+00
-1.500942E-01	-8.724600E-04	2.210000E+00
-1.500972E-01	-8.721910E-04	2.650000E+00
-1.500957E-01	-8.718993E-04	3.090000E+00
-1.500942E-01	-8.717533E-04	3.530000E+00
-1.500957E-01	-8.716075E-04	3.980000E+00
-1.500949E-01	-8.715383E-04	4.420000E+00
-1.500949E-01	-8.714539E-04	4.870000E+00
-1.500942E-01	-8.713156E-04	5.310000E+00
-1.500934E-01	-8.713079E-04	5.750000E+00
-1.500957E-01	-8.712849E-04	6.200000E+00
-1.500942E-01	-8.712004E-04	6.640000E+00
-1.500949E-01	-8.711620E-04	7.090000E+00
-1.500957E-01	-8.711774E-04	7.520000E+00
-1.500504E-01	-8.705860E-04	7.970000E+00
-1.500934E-01	-8.716612E-04	8.410000E+00
-1.500926E-01	-8.715076E-04	8.860000E+00
-1.500934E-01	-8.715153E-04	9.310000E+00
-1.500942E-01	-8.714692E-04	9.740000E+00
-1.500934E-01	-8.713310E-04	1.063000E+01
-1.500934E-01	-8.713079E-04	1.108000E+01
-1.500926E-01	-8.712464E-04	1.152000E+01
-1.500949E-01	-8.712464E-04	1.197000E+01
-1.500942E-01	-8.712081E-04	1.241000E+01
-1.500957E-01	-8.712081E-04	1.286000E+01
-1.500934E-01	-8.711236E-04	1.330000E+01
-1.500934E-01	-8.710468E-04	1.373000E+01
-1.500934E-01	-8.710468E-04	1.419000E+01
-1.500949E-01	-8.710008E-04	1.462000E+01
-1.500949E-01	-8.710545E-04	1.508000E+01
-1.500957E-01	-8.709931E-04	1.552000E+01
-1.500942E-01	-8.709470E-04	1.597000E+01
-1.500949E-01	-8.709086E-04	1.641000E+01
-1.500942E-01	-8.708932E-04	1.686000E+01
-1.500942E-01	-8.709086E-04	1.729000E+01
-1.500949E-01	-8.709393E-04	1.773000E+01
-1.500957E-01	-8.709163E-04	1.818000E+01
-1.500942E-01	-8.708471E-04	1.862000E+01
-1.500949E-01	-8.708164E-04	1.907000E+01
-1.500942E-01	-8.708318E-04	1.951000E+01
-1.500934E-01	-8.709393E-04	1.996000E+01
-1.500926E-01	-8.708778E-04	2.085000E+01
-1.500942E-01	-8.708625E-04	2.129000E+01
-1.500949E-01	-8.708625E-04	2.173000E+01
-1.500957E-01	-8.708548E-04	2.218000E+01
-1.500957E-01	-8.708548E-04	2.262000E+01
-1.500949E-01	-8.708318E-04	2.307000E+01
-1.500957E-01	-8.707703E-04	2.351000E+01
-1.500965E-01	-8.707473E-04	2.396000E+01
-1.500957E-01	-8.707320E-04	2.439000E+01
-1.500957E-01	-8.707550E-04	2.483000E+01
-1.500957E-01	-8.707012E-04	2.528000E+01
-1.500957E-01	-8.707012E-04	2.572000E+01
-1.500972E-01	-8.706782E-04	2.617000E+01
-1.500965E-01	-8.705860E-04	2.661000E+01
-1.500957E-01	-8.705476E-04	2.706000E+01
-1.500980E-01	-8.705399E-04	2.750000E+01
-1.500980E-01	-8.704939E-04	2.794000E+01
-1.500972E-01	-8.704631E-04	2.838000E+01
-1.500965E-01	-8.704401E-04	2.882000E+01
-1.500972E-01	-8.704017E-04	2.927000E+01
-1.500957E-01	-8.703556E-04	2.971000E+01
-1.500942E-01	-8.703095E-04	3.060000E+01
-1.500965E-01	-8.702942E-04	3.105000E+01
-1.500957E-01	-8.702635E-04	3.148000E+01
-1.500957E-01	-8.702020E-04	3.193000E+01
-1.500965E-01	-8.702097E-04	3.237000E+01
-1.500957E-01	-8.701790E-04	3.282000E+01
-1.500957E-01	-8.701559E-04	3.327000E+01
-1.500957E-01	-8.701406E-04	3.371000E+01
-1.500972E-01	-8.701406E-04	3.416000E+01
-1.500965E-01	-8.701175E-04	3.459000E+01
-1.500980E-01	-8.701022E-04	3.504000E+01
-1.500972E-01	-8.700177E-04	3.548000E+01
-1.500965E-01	-8.699716E-04	3.593000E+01
-1.500995E-01	-8.699409E-04	3.637000E+01
-1.500957E-01	-8.699102E-04	3.681000E+01
-1.500972E-01	-8.699332E-04	3.726000E+01
-1.500972E-01	-8.698564E-04	3.769000E+01
-1.500965E-01	-8.698487E-04	3.814000E+01
-1.500949E-01	-8.697797E-04	3.858000E+01
-1.500965E-01	-8.697643E-04	3.903000E+01
-1.500965E-01	-8.697413E-04	3.947000E+01
-1.500972E-01	-8.695339E-04	3.992000E+01
-1.500957E-01	-8.694725E-04	4.079000E+01
-1.500972E-01	-8.694648E-04	4.124000E+01
-1.500972E-01	-8.694725E-04	4.168000E+01
-1.500949E-01	-8.694571E-04	4.213000E+01
-1.500965E-01	-8.693956E-04	4.257000E+01
-1.500957E-01	-8.693573E-04	4.302000E+01
-1.500965E-01	-8.693112E-04	4.346000E+01
-1.500942E-01	-8.692882E-04	4.391000E+01
-1.500957E-01	-8.693265E-04	4.434000E+01
-1.500957E-01	-8.692805E-04	4.478000E+01
-1.500949E-01	-8.692805E-04	4.523000E+01
-1.500949E-01	-8.692651E-04	4.567000E+01
-1.500949E-01	-8.692267E-04	4.612000E+01
-1.500965E-01	-8.692344E-04	4.656000E+01
-1.500949E-01	-8.691499E-04	4.700000E+01
-1.500957E-01	-8.691422E-04	4.744000E+01
-1.500949E-01	-8.690962E-04	4.789000E+01
-1.500957E-01	-8.691269E-04	4.833000E+01
-1.500957E-01	-8.690655E-04	4.877000E+01
-1.500949E-01	-8.690040E-04	4.922000E+01
-1.500965E-01	-8.689656E-04	4.966000E+01
