CORRW ASCII
  CorrWare for Windows: Version 3.5f
  Potentiostatic	[-0.1 Ref,1.5 Min][default]	IV_-100mV_1.cor
  Date: 11-05-2019    Time: 20:10:45
   
   
  Open Circuit Potential (V): 0.0031
  Begin Information:          Cell Information
    Surface Area:             1
    Density:                  0
    Weight:                   0
    Polarity:                 0
    PolarityI:                0
    Corrosion Unit Type:      0
    Reference Type:           0
    Reference Potential:      0
    User-Defined Potential:   0
    Stern-Geary:              26
  End Information:            Cell Information
  Begin Pstat:                1287
    Pstat Title:              Instrument #1
    Booster Type:             0
    Booster Name:             None
    Current Range:            0
    Current Limit:            0
    Current LimitType:        0
    Sweep Type:               0
    Use Error Beep:           1
    Auxilary Type:            0
    iR Comp. Type:            0
    iR Ohms:                  0
    iR Time:                  27
    iR Ratio:                 255
    LP Filter Type:           2
    Drift Correction:         1
    Null Correction:          0
    Pstat Bandwidth Type:     2
    Gstat Bandwidth Type:     2
    External Input:           0
    SafetyMinV:               0
    SafetyMaxV:               10
    SafetyMinI:               0
    SafetyMaxI:               4
    SafetyMinQ:               0
    SafetyMaxQ:               1000
    SafetyMinT:               0
    SafetyMaxT:               50
    SafetyChT:                0
    SafetyMinVUse:            0
    SafetyMaxVUse:            0
    SafetyMinIUse:            0
    SafetyMaxIUse:            0
    SafetyMinQUse:            0
    SafetyMaxQUse:            0
    SafetyMinTUse:            0
    SafetyMaxTUse:            0
  End Pstat:                  1287
  Begin Experiment:           Potentiostatic	[-0.1 Ref,1.5 Min][default]	IV_-100mV_1.cor
    Data File:                Z:\191101_Amezawa\fr_XAS\DPB2\700C_100%O2\Electrochem\IV_-100mV_1.cor
    Data Append:              0
    Comment Lines:            0
    Potential:                -0.1
    Potential Type:           1
    Total Time:               1.5
    Time Units:               1
    Time Marker:              -1
    Measure Rate Type:        1
    Measure Rate #1:          2000
    Measure Rate #2:          10
    Measure Rate #3:          0.1
    Measure Rate #4:          2
    Use Threshold:            0
    Threshold I_Min:          -15
    Threshold I_Max:          15
    Threshold Delta:          5
    Threshold Time:           60
    Copy AuxV:                0
    Axes Type:                1
    Use Custom Pstat:         0
  End Experiment:             Potentiostatic	[-0.1 Ref,1.5 Min][default]	IV_-100mV_1.cor
  Data Points:                64
  E(Volts)	I(A/cm2)	T(Seconds)
End Comments
-1.001052E-01	-4.885988E-04	0.000000E+00
-1.001030E-01	-4.845131E-04	8.900000E-01
-1.001052E-01	-4.837221E-04	1.320000E+00
-1.001045E-01	-4.831537E-04	1.760000E+00
-1.001052E-01	-4.826853E-04	2.210000E+00
-1.001045E-01	-4.823474E-04	2.650000E+00
-1.001052E-01	-4.820863E-04	3.090000E+00
-1.001037E-01	-4.818174E-04	3.530000E+00
-1.001030E-01	-4.816562E-04	3.980000E+00
-1.001045E-01	-4.814949E-04	4.420000E+00
-1.001037E-01	-4.813106E-04	4.870000E+00
-1.001060E-01	-4.811954E-04	5.310000E+00
-1.001052E-01	-4.810726E-04	5.750000E+00
-1.001037E-01	-4.809343E-04	6.200000E+00
-1.001022E-01	-4.808421E-04	6.640000E+00
-1.001045E-01	-4.807576E-04	7.090000E+00
-1.001030E-01	-4.806655E-04	7.520000E+00
-1.001045E-01	-4.805657E-04	7.970000E+00
-1.001045E-01	-4.804965E-04	8.410000E+00
-1.001052E-01	-4.804044E-04	8.860000E+00
-1.001045E-01	-4.803430E-04	9.300000E+00
-1.001045E-01	-4.801970E-04	9.740000E+00
-1.001030E-01	-4.800588E-04	1.062000E+01
-1.001037E-01	-4.799897E-04	1.107000E+01
-1.001045E-01	-4.799359E-04	1.151000E+01
-1.001037E-01	-4.798668E-04	1.196000E+01
-1.001052E-01	-4.798207E-04	1.240000E+01
-1.001045E-01	-4.797977E-04	1.285000E+01
-1.001030E-01	-4.797209E-04	1.329000E+01
-1.001045E-01	-4.796518E-04	1.372000E+01
-1.001037E-01	-4.796210E-04	1.418000E+01
-1.001045E-01	-4.795519E-04	1.462000E+01
-1.001045E-01	-4.795289E-04	1.507000E+01
-1.001037E-01	-4.794828E-04	1.550000E+01
-1.001045E-01	-4.794137E-04	1.595000E+01
-1.001045E-01	-4.793676E-04	1.639000E+01
-1.001037E-01	-4.793599E-04	1.682000E+01
-1.001060E-01	-4.793139E-04	1.727000E+01
-1.001045E-01	-4.792293E-04	1.771000E+01
-1.001022E-01	-4.791526E-04	1.817000E+01
-1.001037E-01	-4.791449E-04	1.860000E+01
-1.001037E-01	-4.790911E-04	1.905000E+01
-1.001037E-01	-4.790297E-04	1.949000E+01
-1.001052E-01	-4.790143E-04	1.997000E+01
-1.001037E-01	-4.789145E-04	2.085000E+01
-1.001052E-01	-4.788915E-04	2.129000E+01
-1.001045E-01	-4.788377E-04	2.172000E+01
-1.001052E-01	-4.788070E-04	2.217000E+01
-1.001052E-01	-4.787686E-04	2.261000E+01
-1.001045E-01	-4.787379E-04	2.306000E+01
-1.001045E-01	-4.787072E-04	2.350000E+01
-1.001060E-01	-4.786687E-04	2.395000E+01
-1.001068E-01	-4.786457E-04	2.439000E+01
-1.001030E-01	-4.785843E-04	2.483000E+01
-1.001037E-01	-4.785459E-04	2.528000E+01
-1.001030E-01	-4.784768E-04	2.572000E+01
-1.001037E-01	-4.784460E-04	2.617000E+01
-1.001052E-01	-4.784230E-04	2.660000E+01
-1.001052E-01	-4.783692E-04	2.705000E+01
-1.001068E-01	-4.783385E-04	2.749000E+01
-1.001052E-01	-4.782924E-04	2.794000E+01
-1.001037E-01	-4.782771E-04	2.838000E+01
-1.001052E-01	-4.782233E-04	2.882000E+01
-1.001045E-01	-4.782003E-04	2.927000E+01
