CORRW ASCII
  CorrWare for Windows: Version 3.5f
  Potentiostatic	[-0.25 Ref,1.5 Min][default]	IV_-250mV_1.cor
  Date: 11-05-2019    Time: 20:13:02
   
   
  Open Circuit Potential (V): 0.0031
  Begin Information:          Cell Information
    Surface Area:             1
    Density:                  0
    Weight:                   0
    Polarity:                 0
    PolarityI:                0
    Corrosion Unit Type:      0
    Reference Type:           0
    Reference Potential:      0
    User-Defined Potential:   0
    Stern-Geary:              26
  End Information:            Cell Information
  Begin Pstat:                1287
    Pstat Title:              Instrument #1
    Booster Type:             0
    Booster Name:             None
    Current Range:            0
    Current Limit:            0
    Current LimitType:        0
    Sweep Type:               0
    Use Error Beep:           1
    Auxilary Type:            0
    iR Comp. Type:            0
    iR Ohms:                  0
    iR Time:                  27
    iR Ratio:                 255
    LP Filter Type:           2
    Drift Correction:         1
    Null Correction:          0
    Pstat Bandwidth Type:     2
    Gstat Bandwidth Type:     2
    External Input:           0
    SafetyMinV:               0
    SafetyMaxV:               10
    SafetyMinI:               0
    SafetyMaxI:               4
    SafetyMinQ:               0
    SafetyMaxQ:               1000
    SafetyMinT:               0
    SafetyMaxT:               50
    SafetyChT:                0
    SafetyMinVUse:            0
    SafetyMaxVUse:            0
    SafetyMinIUse:            0
    SafetyMaxIUse:            0
    SafetyMinQUse:            0
    SafetyMaxQUse:            0
    SafetyMinTUse:            0
    SafetyMaxTUse:            0
  End Pstat:                  1287
  Begin Experiment:           Potentiostatic	[-0.25 Ref,1.5 Min][default]	IV_-250mV_1.cor
    Data File:                Z:\191101_Amezawa\fr_XAS\DPB2\700C_100%O2\Electrochem\IV_-250mV_1.cor
    Data Append:              0
    Comment Lines:            0
    Potential:                -0.25
    Potential Type:           1
    Total Time:               1.5
    Time Units:               1
    Time Marker:              -1
    Measure Rate Type:        1
    Measure Rate #1:          2000
    Measure Rate #2:          10
    Measure Rate #3:          0.1
    Measure Rate #4:          2
    Use Threshold:            0
    Threshold I_Min:          -15
    Threshold I_Max:          15
    Threshold Delta:          5
    Threshold Time:           60
    Copy AuxV:                0
    Axes Type:                1
    Use Custom Pstat:         0
  End Experiment:             Potentiostatic	[-0.25 Ref,1.5 Min][default]	IV_-250mV_1.cor
  Data Points:                82
  E(Volts)	I(A/cm2)	T(Seconds)
End Comments
-2.501768E-01	-2.000566E-03	0.000000E+00
-2.501614E-01	-1.997463E-03	8.900000E-01
-2.501537E-01	-1.997487E-03	1.330000E+00
-2.501614E-01	-1.997794E-03	1.770000E+00
-2.501614E-01	-1.998109E-03	2.220000E+00
-2.501537E-01	-1.998424E-03	2.650000E+00
-2.501537E-01	-1.998853E-03	3.100000E+00
-2.501614E-01	-1.999276E-03	3.540000E+00
-2.501537E-01	-1.999737E-03	3.990000E+00
-2.501537E-01	-2.000251E-03	4.440000E+00
-2.501537E-01	-2.000720E-03	4.890000E+00
-2.501537E-01	-2.001119E-03	5.320000E+00
-2.501537E-01	-2.001480E-03	5.760000E+00
-2.501537E-01	-2.001841E-03	6.210000E+00
-2.501537E-01	-2.002371E-03	6.650000E+00
-2.501537E-01	-2.002801E-03	7.100000E+00
-2.501537E-01	-2.003154E-03	7.540000E+00
-2.501537E-01	-2.003531E-03	7.990000E+00
-2.501461E-01	-2.003799E-03	8.430000E+00
-2.501537E-01	-2.004183E-03	8.870000E+00
-2.501537E-01	-2.004483E-03	9.310000E+00
-2.501614E-01	-2.004713E-03	9.750000E+00
-2.501614E-01	-2.005427E-03	1.064000E+01
-2.501614E-01	-2.005681E-03	1.109000E+01
-2.501537E-01	-2.005996E-03	1.153000E+01
-2.501614E-01	-2.006203E-03	1.197000E+01
-2.501614E-01	-2.006549E-03	1.241000E+01
-2.501614E-01	-2.006856E-03	1.286000E+01
-2.501614E-01	-2.006933E-03	1.330000E+01
-2.501614E-01	-2.007148E-03	1.374000E+01
-2.501537E-01	-2.007378E-03	1.419000E+01
-2.501614E-01	-2.007662E-03	1.463000E+01
-2.501537E-01	-2.007839E-03	1.507000E+01
-2.501614E-01	-2.008070E-03	1.551000E+01
-2.501614E-01	-2.008346E-03	1.596000E+01
-2.501614E-01	-2.008492E-03	1.640000E+01
-2.501614E-01	-2.008761E-03	1.686000E+01
-2.501537E-01	-2.009037E-03	1.730000E+01
-2.501614E-01	-2.009183E-03	1.774000E+01
-2.501614E-01	-2.009398E-03	1.819000E+01
-2.501614E-01	-2.009621E-03	1.862000E+01
-2.501614E-01	-2.009859E-03	1.907000E+01
-2.501614E-01	-2.010051E-03	1.951000E+01
-2.501614E-01	-2.010274E-03	1.996000E+01
-2.501537E-01	-2.010788E-03	2.085000E+01
-2.501537E-01	-2.010934E-03	2.129000E+01
-2.501614E-01	-2.011211E-03	2.174000E+01
-2.501537E-01	-2.011410E-03	2.219000E+01
-2.501614E-01	-2.011625E-03	2.262000E+01
-2.501614E-01	-2.011855E-03	2.307000E+01
-2.501614E-01	-2.011963E-03	2.351000E+01
-2.501614E-01	-2.012209E-03	2.396000E+01
-2.501614E-01	-2.012424E-03	2.440000E+01
-2.501614E-01	-2.012685E-03	2.485000E+01
-2.501614E-01	-2.013061E-03	2.529000E+01
-2.501614E-01	-2.013207E-03	2.572000E+01
-2.501614E-01	-2.013384E-03	2.617000E+01
-2.501537E-01	-2.013545E-03	2.661000E+01
-2.501614E-01	-2.013714E-03	2.706000E+01
-2.501614E-01	-2.013821E-03	2.750000E+01
-2.501537E-01	-2.014006E-03	2.795000E+01
-2.501614E-01	-2.014290E-03	2.839000E+01
-2.501614E-01	-2.014474E-03	2.884000E+01
-2.501614E-01	-2.014567E-03	2.928000E+01
-2.501537E-01	-2.014682E-03	2.971000E+01
-2.501537E-01	-2.015027E-03	3.060000E+01
-2.501537E-01	-2.015166E-03	3.105000E+01
-2.501614E-01	-2.015419E-03	3.149000E+01
-2.501537E-01	-2.015580E-03	3.194000E+01
-2.501614E-01	-2.015672E-03	3.238000E+01
-2.501537E-01	-2.015941E-03	3.283000E+01
-2.501614E-01	-2.016064E-03	3.327000E+01
-2.501614E-01	-2.016195E-03	3.371000E+01
-2.501537E-01	-2.016364E-03	3.416000E+01
-2.501614E-01	-2.016525E-03	3.460000E+01
-2.501614E-01	-2.016709E-03	3.505000E+01
-2.501537E-01	-2.016824E-03	3.548000E+01
-2.501537E-01	-2.017016E-03	3.593000E+01
-2.501691E-01	-2.017162E-03	3.637000E+01
-2.501614E-01	-2.017278E-03	3.681000E+01
-2.501537E-01	-2.017439E-03	3.726000E+01
-2.501614E-01	-2.017631E-03	3.770000E+01
