CORRW ASCII
  CorrWare for Windows: Version 3.5f
  Potentiostatic	[-0.2 Ref,1.5 Min][default]	IV_-200mV_1.cor
  Date: 11-05-2019    Time: 20:12:09
   
   
  Open Circuit Potential (V): 0.0031
  Begin Information:          Cell Information
    Surface Area:             1
    Density:                  0
    Weight:                   0
    Polarity:                 0
    PolarityI:                0
    Corrosion Unit Type:      0
    Reference Type:           0
    Reference Potential:      0
    User-Defined Potential:   0
    Stern-Geary:              26
  End Information:            Cell Information
  Begin Pstat:                1287
    Pstat Title:              Instrument #1
    Booster Type:             0
    Booster Name:             None
    Current Range:            0
    Current Limit:            0
    Current LimitType:        0
    Sweep Type:               0
    Use Error Beep:           1
    Auxilary Type:            0
    iR Comp. Type:            0
    iR Ohms:                  0
    iR Time:                  27
    iR Ratio:                 255
    LP Filter Type:           2
    Drift Correction:         1
    Null Correction:          0
    Pstat Bandwidth Type:     2
    Gstat Bandwidth Type:     2
    External Input:           0
    SafetyMinV:               0
    SafetyMaxV:               10
    SafetyMinI:               0
    SafetyMaxI:               4
    SafetyMinQ:               0
    SafetyMaxQ:               1000
    SafetyMinT:               0
    SafetyMaxT:               50
    SafetyChT:                0
    SafetyMinVUse:            0
    SafetyMaxVUse:            0
    SafetyMinIUse:            0
    SafetyMaxIUse:            0
    SafetyMinQUse:            0
    SafetyMaxQUse:            0
    SafetyMinTUse:            0
    SafetyMaxTUse:            0
  End Pstat:                  1287
  Begin Experiment:           Potentiostatic	[-0.2 Ref,1.5 Min][default]	IV_-200mV_1.cor
    Data File:                Z:\191101_Amezawa\fr_XAS\DPB2\700C_100%O2\Electrochem\IV_-200mV_1.cor
    Data Append:              0
    Comment Lines:            0
    Potential:                -0.2
    Potential Type:           1
    Total Time:               1.5
    Time Units:               1
    Time Marker:              -1
    Measure Rate Type:        1
    Measure Rate #1:          2000
    Measure Rate #2:          10
    Measure Rate #3:          0.1
    Measure Rate #4:          2
    Use Threshold:            0
    Threshold I_Min:          -15
    Threshold I_Max:          15
    Threshold Delta:          5
    Threshold Time:           60
    Copy AuxV:                0
    Axes Type:                1
    Use Custom Pstat:         0
  End Experiment:             Potentiostatic	[-0.2 Ref,1.5 Min][default]	IV_-200mV_1.cor
  Data Points:                111
  E(Volts)	I(A/cm2)	T(Seconds)
End Comments
-2.000854E-01	-1.386110E-03	0.000000E+00
-2.000831E-01	-1.378638E-03	8.800000E-01
-2.000854E-01	-1.377901E-03	1.320000E+00
-2.000861E-01	-1.377517E-03	1.760000E+00
-2.000877E-01	-1.377355E-03	2.210000E+00
-2.000861E-01	-1.377202E-03	2.650000E+00
-2.000854E-01	-1.377271E-03	3.090000E+00
-2.000861E-01	-1.377325E-03	3.530000E+00
-2.000861E-01	-1.377432E-03	3.980000E+00
-2.000885E-01	-1.377601E-03	4.420000E+00
-2.000869E-01	-1.377709E-03	4.870000E+00
-2.000861E-01	-1.377816E-03	5.310000E+00
-2.000854E-01	-1.377924E-03	5.750000E+00
-2.000854E-01	-1.378046E-03	6.200000E+00
-2.000861E-01	-1.378208E-03	6.640000E+00
-2.000846E-01	-1.378269E-03	7.090000E+00
-2.000854E-01	-1.378438E-03	7.520000E+00
-2.000846E-01	-1.378553E-03	7.970000E+00
-2.000869E-01	-1.378699E-03	8.410000E+00
-2.000877E-01	-1.378753E-03	8.860000E+00
-2.000869E-01	-1.378838E-03	9.310000E+00
-2.000869E-01	-1.378715E-03	9.740000E+00
-2.000823E-01	-1.378861E-03	1.063000E+01
-2.000854E-01	-1.378976E-03	1.108000E+01
-2.000839E-01	-1.379014E-03	1.152000E+01
-2.000854E-01	-1.379122E-03	1.197000E+01
-2.000846E-01	-1.379275E-03	1.241000E+01
-2.000861E-01	-1.379383E-03	1.286000E+01
-2.000861E-01	-1.379521E-03	1.330000E+01
-2.000869E-01	-1.379583E-03	1.374000E+01
-2.000869E-01	-1.379598E-03	1.419000E+01
-2.000861E-01	-1.379613E-03	1.462000E+01
-2.000869E-01	-1.379721E-03	1.508000E+01
-2.000861E-01	-1.379859E-03	1.552000E+01
-2.000877E-01	-1.379882E-03	1.599000E+01
-2.000869E-01	-1.379989E-03	1.643000E+01
-2.000861E-01	-1.380005E-03	1.688000E+01
-2.000877E-01	-1.380089E-03	1.732000E+01
-2.000869E-01	-1.380051E-03	1.776000E+01
-2.000869E-01	-1.380097E-03	1.821000E+01
-2.000861E-01	-1.380189E-03	1.864000E+01
-2.000877E-01	-1.380235E-03	1.909000E+01
-2.000877E-01	-1.380266E-03	1.953000E+01
-2.000877E-01	-1.380589E-03	1.998000E+01
-2.000869E-01	-1.380696E-03	2.087000E+01
-2.000885E-01	-1.380658E-03	2.131000E+01
-2.000877E-01	-1.380727E-03	2.175000E+01
-2.000877E-01	-1.380719E-03	2.219000E+01
-2.000877E-01	-1.380796E-03	2.263000E+01
-2.000877E-01	-1.380788E-03	2.308000E+01
-2.000869E-01	-1.380942E-03	2.352000E+01
-2.000869E-01	-1.380996E-03	2.397000E+01
-2.000885E-01	-1.380988E-03	2.441000E+01
-2.000885E-01	-1.381026E-03	2.486000E+01
-2.000877E-01	-1.380988E-03	2.530000E+01
-2.000877E-01	-1.381119E-03	2.574000E+01
-2.000869E-01	-1.381072E-03	2.619000E+01
-2.000861E-01	-1.381165E-03	2.662000E+01
-2.000877E-01	-1.381241E-03	2.707000E+01
-2.000869E-01	-1.381195E-03	2.751000E+01
-2.000869E-01	-1.381272E-03	2.796000E+01
-2.000885E-01	-1.381280E-03	2.840000E+01
-2.000869E-01	-1.381326E-03	2.885000E+01
-2.000861E-01	-1.381272E-03	2.929000E+01
-2.000869E-01	-1.381418E-03	2.972000E+01
-2.000861E-01	-1.381502E-03	3.061000E+01
-2.000861E-01	-1.381549E-03	3.106000E+01
-2.000861E-01	-1.381510E-03	3.150000E+01
-2.000854E-01	-1.381564E-03	3.195000E+01
-2.000869E-01	-1.381572E-03	3.239000E+01
-2.000861E-01	-1.381587E-03	3.282000E+01
-2.000846E-01	-1.381633E-03	3.327000E+01
-2.000869E-01	-1.381787E-03	3.371000E+01
-2.000861E-01	-1.381817E-03	3.416000E+01
-2.000861E-01	-1.381810E-03	3.460000E+01
-2.000854E-01	-1.381879E-03	3.505000E+01
-2.000854E-01	-1.381894E-03	3.549000E+01
-2.000877E-01	-1.381971E-03	3.593000E+01
-2.000877E-01	-1.381948E-03	3.638000E+01
-2.000885E-01	-1.382086E-03	3.682000E+01
-2.000869E-01	-1.382071E-03	3.727000E+01
-2.000885E-01	-1.382048E-03	3.771000E+01
-2.000861E-01	-1.382048E-03	3.816000E+01
-2.000861E-01	-1.382002E-03	3.859000E+01
-2.000861E-01	-1.382171E-03	3.904000E+01
-2.000861E-01	-1.382040E-03	3.948000E+01
-2.000869E-01	-1.382002E-03	3.993000E+01
-2.000854E-01	-1.382025E-03	4.080000E+01
-2.000869E-01	-1.382040E-03	4.125000E+01
-2.000854E-01	-1.382071E-03	4.169000E+01
-2.000877E-01	-1.382094E-03	4.214000E+01
-2.000869E-01	-1.382148E-03	4.258000E+01
-2.000861E-01	-1.382148E-03	4.303000E+01
-2.000877E-01	-1.382071E-03	4.347000E+01
-2.000869E-01	-1.382063E-03	4.392000E+01
-2.000854E-01	-1.382086E-03	4.435000E+01
-2.000854E-01	-1.382163E-03	4.479000E+01
-2.000869E-01	-1.382163E-03	4.524000E+01
-2.000861E-01	-1.382294E-03	4.568000E+01
-2.000869E-01	-1.382301E-03	4.613000E+01
-2.000877E-01	-1.382232E-03	4.657000E+01
-2.000877E-01	-1.382178E-03	4.702000E+01
-2.000885E-01	-1.382286E-03	4.746000E+01
-2.000869E-01	-1.382301E-03	4.791000E+01
-2.000861E-01	-1.382378E-03	4.835000E+01
-2.000877E-01	-1.382370E-03	4.878000E+01
-2.000869E-01	-1.382378E-03	4.923000E+01
-2.000869E-01	-1.382324E-03	4.967000E+01
-2.000877E-01	-1.382401E-03	5.056000E+01
-2.000892E-01	-1.382393E-03	5.101000E+01
-2.000869E-01	-1.382424E-03	5.145000E+01
