CORRW ASCII
  CorrWare for Windows: Version 3.5f
  Potentiostatic	[-0.05 Ref,1.5 Min][default]	IV_-50mV_1.cor
  Date: 11-05-2019    Time: 20:10:21
   
   
  Open Circuit Potential (V): 0.0031
  Begin Information:          Cell Information
    Surface Area:             1
    Density:                  0
    Weight:                   0
    Polarity:                 0
    PolarityI:                0
    Corrosion Unit Type:      0
    Reference Type:           0
    Reference Potential:      0
    User-Defined Potential:   0
    Stern-Geary:              26
  End Information:            Cell Information
  Begin Pstat:                1287
    Pstat Title:              Instrument #1
    Booster Type:             0
    Booster Name:             None
    Current Range:            0
    Current Limit:            0
    Current LimitType:        0
    Sweep Type:               0
    Use Error Beep:           1
    Auxilary Type:            0
    iR Comp. Type:            0
    iR Ohms:                  0
    iR Time:                  27
    iR Ratio:                 255
    LP Filter Type:           2
    Drift Correction:         1
    Null Correction:          0
    Pstat Bandwidth Type:     2
    Gstat Bandwidth Type:     2
    External Input:           0
    SafetyMinV:               0
    SafetyMaxV:               10
    SafetyMinI:               0
    SafetyMaxI:               4
    SafetyMinQ:               0
    SafetyMaxQ:               1000
    SafetyMinT:               0
    SafetyMaxT:               50
    SafetyChT:                0
    SafetyMinVUse:            0
    SafetyMaxVUse:            0
    SafetyMinIUse:            0
    SafetyMaxIUse:            0
    SafetyMinQUse:            0
    SafetyMaxQUse:            0
    SafetyMinTUse:            0
    SafetyMaxTUse:            0
  End Pstat:                  1287
  Begin Experiment:           Potentiostatic	[-0.05 Ref,1.5 Min][default]	IV_-50mV_1.cor
    Data File:                Z:\191101_Amezawa\fr_XAS\DPB2\700C_100%O2\Electrochem\IV_-50mV_1.cor
    Data Append:              0
    Comment Lines:            0
    Potential:                -0.05
    Potential Type:           1
    Total Time:               1.5
    Time Units:               1
    Time Marker:              -1
    Measure Rate Type:        1
    Measure Rate #1:          2000
    Measure Rate #2:          10
    Measure Rate #3:          0.1
    Measure Rate #4:          2
    Use Threshold:            0
    Threshold I_Min:          -15
    Threshold I_Max:          15
    Threshold Delta:          5
    Threshold Time:           60
    Copy AuxV:                0
    Axes Type:                1
    Use Custom Pstat:         0
  End Experiment:             Potentiostatic	[-0.05 Ref,1.5 Min][default]	IV_-50mV_1.cor
  Data Points:                46
  E(Volts)	I(A/cm2)	T(Seconds)
End Comments
-5.826283E-02	-2.078624E-04	0.000000E+00
-5.011633E-02	-1.874878E-04	8.800000E-01
-5.011403E-02	-1.931325E-04	1.330000E+00
-5.011480E-02	-1.966806E-04	1.770000E+00
-5.011250E-02	-1.989231E-04	2.220000E+00
-5.011096E-02	-2.002133E-04	2.660000E+00
-5.011096E-02	-2.009890E-04	3.110000E+00
-5.011250E-02	-2.014190E-04	3.550000E+00
-5.011096E-02	-2.016341E-04	3.990000E+00
-5.011096E-02	-2.017262E-04	4.430000E+00
-5.011173E-02	-2.017262E-04	4.880000E+00
-5.011173E-02	-2.016801E-04	5.320000E+00
-5.011250E-02	-2.016417E-04	5.750000E+00
-5.011096E-02	-2.015342E-04	6.200000E+00
-5.010943E-02	-2.014421E-04	6.640000E+00
-5.011019E-02	-2.013499E-04	7.090000E+00
-5.011096E-02	-2.012270E-04	7.530000E+00
-5.011096E-02	-2.011502E-04	7.980000E+00
-5.011250E-02	-2.010504E-04	8.420000E+00
-5.011097E-02	-2.009506E-04	8.870000E+00
-5.011173E-02	-2.008354E-04	9.740000E+00
-5.011173E-02	-2.007509E-04	1.018000E+01
-5.011173E-02	-2.006971E-04	1.062000E+01
-5.011250E-02	-2.006050E-04	1.107000E+01
-5.011020E-02	-2.005743E-04	1.151000E+01
-5.011250E-02	-2.004898E-04	1.196000E+01
-5.011327E-02	-2.004206E-04	1.240000E+01
-5.011327E-02	-2.004053E-04	1.284000E+01
-5.011480E-02	-2.003516E-04	1.328000E+01
-5.011404E-02	-2.002978E-04	1.372000E+01
-5.011327E-02	-2.002440E-04	1.417000E+01
-5.011327E-02	-2.002056E-04	1.461000E+01
-5.011327E-02	-2.001519E-04	1.506000E+01
-5.011327E-02	-2.001058E-04	1.550000E+01
-5.011480E-02	-2.000904E-04	1.594000E+01
-5.011250E-02	-2.000750E-04	1.638000E+01
-5.011404E-02	-1.999906E-04	1.682000E+01
-5.011557E-02	-1.999675E-04	1.727000E+01
-5.011480E-02	-1.999445E-04	1.771000E+01
-5.011327E-02	-1.999215E-04	1.816000E+01
-5.011250E-02	-1.998600E-04	1.860000E+01
-5.011173E-02	-1.998984E-04	1.905000E+01
-5.011173E-02	-1.998139E-04	1.993000E+01
-5.011250E-02	-1.998139E-04	2.037000E+01
-5.011250E-02	-1.997986E-04	2.081000E+01
-5.011250E-02	-1.997755E-04	2.126000E+01
