CORRW ASCII
  CorrWare for Windows: Version 3.5f
  Potentiostatic	[-0.3 Ref,1.5 Min][default]	IV_-300mV_1.cor
  Date: 11-05-2019    Time: 20:13:42
   
   
  Open Circuit Potential (V): 0.0031
  Begin Information:          Cell Information
    Surface Area:             1
    Density:                  0
    Weight:                   0
    Polarity:                 0
    PolarityI:                0
    Corrosion Unit Type:      0
    Reference Type:           0
    Reference Potential:      0
    User-Defined Potential:   0
    Stern-Geary:              26
  End Information:            Cell Information
  Begin Pstat:                1287
    Pstat Title:              Instrument #1
    Booster Type:             0
    Booster Name:             None
    Current Range:            0
    Current Limit:            0
    Current LimitType:        0
    Sweep Type:               0
    Use Error Beep:           1
    Auxilary Type:            0
    iR Comp. Type:            0
    iR Ohms:                  0
    iR Time:                  27
    iR Ratio:                 255
    LP Filter Type:           2
    Drift Correction:         1
    Null Correction:          0
    Pstat Bandwidth Type:     2
    Gstat Bandwidth Type:     2
    External Input:           0
    SafetyMinV:               0
    SafetyMaxV:               10
    SafetyMinI:               0
    SafetyMaxI:               4
    SafetyMinQ:               0
    SafetyMaxQ:               1000
    SafetyMinT:               0
    SafetyMaxT:               50
    SafetyChT:                0
    SafetyMinVUse:            0
    SafetyMaxVUse:            0
    SafetyMinIUse:            0
    SafetyMaxIUse:            0
    SafetyMinQUse:            0
    SafetyMaxQUse:            0
    SafetyMinTUse:            0
    SafetyMaxTUse:            0
  End Pstat:                  1287
  Begin Experiment:           Potentiostatic	[-0.3 Ref,1.5 Min][default]	IV_-300mV_1.cor
    Data File:                Z:\191101_Amezawa\fr_XAS\DPB2\700C_100%O2\Electrochem\IV_-300mV_1.cor
    Data Append:              0
    Comment Lines:            0
    Potential:                -0.3
    Potential Type:           1
    Total Time:               1.5
    Time Units:               1
    Time Marker:              -1
    Measure Rate Type:        1
    Measure Rate #1:          2000
    Measure Rate #2:          10
    Measure Rate #3:          0.1
    Measure Rate #4:          2
    Use Threshold:            0
    Threshold I_Min:          -15
    Threshold I_Max:          15
    Threshold Delta:          5
    Threshold Time:           60
    Copy AuxV:                0
    Axes Type:                1
    Use Custom Pstat:         0
  End Experiment:             Potentiostatic	[-0.3 Ref,1.5 Min][default]	IV_-300mV_1.cor
  Data Points:                172
  E(Volts)	I(A/cm2)	T(Seconds)
End Comments
-3.001991E-01	-2.731129E-03	0.000000E+00
-3.002068E-01	-2.725679E-03	8.900000E-01
-3.002068E-01	-2.726063E-03	1.330000E+00
-3.002068E-01	-2.726677E-03	1.800000E+00
-3.001991E-01	-2.727291E-03	2.250000E+00
-3.001991E-01	-2.728135E-03	2.680000E+00
-3.002068E-01	-2.729133E-03	3.130000E+00
-3.002068E-01	-2.730054E-03	3.570000E+00
-3.002068E-01	-2.730668E-03	4.020000E+00
-3.002068E-01	-2.731435E-03	4.460000E+00
-3.002144E-01	-2.732280E-03	4.900000E+00
-3.002144E-01	-2.732893E-03	5.340000E+00
-3.002068E-01	-2.733661E-03	5.780000E+00
-3.002068E-01	-2.734275E-03	6.230000E+00
-3.002068E-01	-2.735119E-03	6.670000E+00
-3.002144E-01	-2.735963E-03	7.120000E+00
-3.002068E-01	-2.736347E-03	7.560000E+00
-3.002068E-01	-2.736884E-03	8.000000E+00
-3.002068E-01	-2.737498E-03	8.440000E+00
-3.002144E-01	-2.737959E-03	8.890000E+00
-3.002068E-01	-2.738496E-03	9.330000E+00
-3.001991E-01	-2.739801E-03	9.770000E+00
-3.001991E-01	-2.741029E-03	1.065000E+01
-3.002068E-01	-2.741566E-03	1.110000E+01
-3.002144E-01	-2.742180E-03	1.154000E+01
-3.002144E-01	-2.742640E-03	1.199000E+01
-3.002144E-01	-2.743101E-03	1.243000E+01
-3.002068E-01	-2.743485E-03	1.288000E+01
-3.002068E-01	-2.743945E-03	1.332000E+01
-3.002068E-01	-2.744329E-03	1.376000E+01
-3.002068E-01	-2.745020E-03	1.420000E+01
-3.002068E-01	-2.745480E-03	1.464000E+01
-3.002144E-01	-2.745864E-03	1.509000E+01
-3.002144E-01	-2.746324E-03	1.553000E+01
-3.002221E-01	-2.746708E-03	1.598000E+01
-3.002221E-01	-2.747015E-03	1.642000E+01
-3.002068E-01	-2.747475E-03	1.686000E+01
-3.001991E-01	-2.747859E-03	1.730000E+01
-3.002068E-01	-2.748166E-03	1.774000E+01
-3.001991E-01	-2.748627E-03	1.819000E+01
-3.002068E-01	-2.749164E-03	1.863000E+01
-3.002144E-01	-2.749240E-03	1.908000E+01
-3.002221E-01	-2.749547E-03	1.952000E+01
-3.002221E-01	-2.749547E-03	1.996000E+01
-3.002221E-01	-2.750315E-03	2.083000E+01
-3.002068E-01	-2.750622E-03	2.128000E+01
-3.002068E-01	-2.751082E-03	2.172000E+01
-3.001991E-01	-2.751312E-03	2.217000E+01
-3.002068E-01	-2.751850E-03	2.261000E+01
-3.002068E-01	-2.752157E-03	2.306000E+01
-3.002068E-01	-2.752541E-03	2.350000E+01
-3.002068E-01	-2.752924E-03	2.395000E+01
-3.002068E-01	-2.753308E-03	2.438000E+01
-3.002068E-01	-2.753615E-03	2.482000E+01
-3.002144E-01	-2.753999E-03	2.527000E+01
-3.002221E-01	-2.754229E-03	2.571000E+01
-3.002221E-01	-2.754536E-03	2.616000E+01
-3.002221E-01	-2.754766E-03	2.659000E+01
-3.002221E-01	-2.755150E-03	2.704000E+01
-3.002144E-01	-2.755610E-03	2.748000E+01
-3.002144E-01	-2.755841E-03	2.794000E+01
-3.002221E-01	-2.756147E-03	2.838000E+01
-3.002221E-01	-2.756378E-03	2.882000E+01
-3.002221E-01	-2.756762E-03	2.927000E+01
-3.002068E-01	-2.757375E-03	2.970000E+01
-3.001991E-01	-2.758143E-03	3.059000E+01
-3.001991E-01	-2.758450E-03	3.104000E+01
-3.002068E-01	-2.758757E-03	3.148000E+01
-3.002068E-01	-2.758987E-03	3.193000E+01
-3.002144E-01	-2.759371E-03	3.237000E+01
-3.002221E-01	-2.759831E-03	3.280000E+01
-3.002221E-01	-2.760062E-03	3.325000E+01
-3.002144E-01	-2.760215E-03	3.369000E+01
-3.002221E-01	-2.760215E-03	3.414000E+01
-3.002221E-01	-2.760599E-03	3.458000E+01
-3.002221E-01	-2.760983E-03	3.503000E+01
-3.002221E-01	-2.761136E-03	3.547000E+01
-3.002221E-01	-2.761366E-03	3.592000E+01
-3.002144E-01	-2.761520E-03	3.635000E+01
-3.002221E-01	-2.761673E-03	3.679000E+01
-3.002144E-01	-2.761750E-03	3.724000E+01
-3.002144E-01	-2.762134E-03	3.768000E+01
-3.002144E-01	-2.762441E-03	3.813000E+01
-3.002144E-01	-2.762748E-03	3.857000E+01
-3.002068E-01	-2.762901E-03	3.902000E+01
-3.002144E-01	-2.763208E-03	3.946000E+01
-3.002068E-01	-2.763592E-03	3.990000E+01
-3.002221E-01	-2.764129E-03	4.078000E+01
-3.002221E-01	-2.764206E-03	4.123000E+01
-3.002144E-01	-2.764436E-03	4.167000E+01
-3.002221E-01	-2.764743E-03	4.211000E+01
-3.002221E-01	-2.765050E-03	4.255000E+01
-3.002221E-01	-2.765280E-03	4.300000E+01
-3.002221E-01	-2.765741E-03	4.344000E+01
-3.002298E-01	-2.765971E-03	4.389000E+01
-3.002221E-01	-2.766124E-03	4.433000E+01
-3.002221E-01	-2.766048E-03	4.477000E+01
-3.002221E-01	-2.766278E-03	4.521000E+01
-3.002221E-01	-2.766508E-03	4.565000E+01
-3.002221E-01	-2.766815E-03	4.610000E+01
-3.002221E-01	-2.766969E-03	4.654000E+01
-3.002144E-01	-2.767122E-03	4.699000E+01
-3.002221E-01	-2.767353E-03	4.743000E+01
-3.002221E-01	-2.767429E-03	4.788000E+01
-3.002221E-01	-2.767583E-03	4.831000E+01
-3.002221E-01	-2.767736E-03	4.875000E+01
-3.002221E-01	-2.768197E-03	4.920000E+01
-3.002221E-01	-2.768504E-03	4.964000E+01
-3.002221E-01	-2.768273E-03	5.009000E+01
-3.002375E-01	-2.768734E-03	5.097000E+01
-3.002451E-01	-2.768887E-03	5.140000E+01
-3.002451E-01	-2.769041E-03	5.184000E+01
-3.002298E-01	-2.769348E-03	5.229000E+01
-3.002221E-01	-2.769655E-03	5.273000E+01
-3.002221E-01	-2.769732E-03	5.318000E+01
-3.002375E-01	-2.769962E-03	5.362000E+01
-3.002298E-01	-2.770269E-03	5.407000E+01
-3.002221E-01	-2.770422E-03	5.451000E+01
-3.002298E-01	-2.770576E-03	5.496000E+01
-3.002221E-01	-2.770806E-03	5.539000E+01
-3.002221E-01	-2.771113E-03	5.583000E+01
-3.002144E-01	-2.771343E-03	5.628000E+01
-3.002221E-01	-2.771573E-03	5.672000E+01
-3.002221E-01	-2.771804E-03	5.717000E+01
-3.002221E-01	-2.772111E-03	5.761000E+01
-3.002221E-01	-2.772494E-03	5.806000E+01
-3.002221E-01	-2.772648E-03	5.850000E+01
-3.002221E-01	-2.772802E-03	5.895000E+01
-3.002221E-01	-2.772955E-03	5.939000E+01
-3.002144E-01	-2.773723E-03	5.983000E+01
-3.002144E-01	-2.774183E-03	6.071000E+01
-3.002221E-01	-2.774567E-03	6.116000E+01
-3.002221E-01	-2.774490E-03	6.160000E+01
-3.002221E-01	-2.774643E-03	6.205000E+01
-3.002451E-01	-2.775027E-03	6.249000E+01
-3.002451E-01	-2.775257E-03	6.294000E+01
-3.002605E-01	-2.775487E-03	6.338000E+01
-3.002605E-01	-2.775564E-03	6.382000E+01
-3.002528E-01	-2.775871E-03	6.426000E+01
-3.002528E-01	-2.776025E-03	6.470000E+01
-3.002451E-01	-2.776101E-03	6.515000E+01
-3.002375E-01	-2.776332E-03	6.559000E+01
-3.002451E-01	-2.776332E-03	6.604000E+01
-3.002375E-01	-2.776332E-03	6.648000E+01
-3.002298E-01	-2.776639E-03	6.693000E+01
-3.002298E-01	-2.776869E-03	6.737000E+01
-3.002298E-01	-2.777023E-03	6.781000E+01
-3.002375E-01	-2.777099E-03	6.826000E+01
-3.002298E-01	-2.777330E-03	6.870000E+01
-3.002298E-01	-2.777406E-03	6.915000E+01
-3.002221E-01	-2.777560E-03	6.959000E+01
-3.002144E-01	-2.777867E-03	7.004000E+01
-3.002298E-01	-2.778174E-03	7.092000E+01
-3.002298E-01	-2.778250E-03	7.136000E+01
-3.002298E-01	-2.778327E-03	7.180000E+01
-3.002221E-01	-2.778634E-03	7.225000E+01
-3.002298E-01	-2.778864E-03	7.269000E+01
-3.002374E-01	-2.779018E-03	7.314000E+01
-3.002374E-01	-2.779172E-03	7.358000E+01
-3.002374E-01	-2.779248E-03	7.403000E+01
-3.002298E-01	-2.779478E-03	7.447000E+01
-3.002374E-01	-2.779786E-03	7.491000E+01
-3.002451E-01	-2.780016E-03	7.535000E+01
-3.002528E-01	-2.780246E-03	7.579000E+01
-3.002528E-01	-2.780476E-03	7.624000E+01
-3.002451E-01	-2.780630E-03	7.668000E+01
-3.002451E-01	-2.780706E-03	7.713000E+01
-3.002451E-01	-2.780860E-03	7.757000E+01
-3.002374E-01	-2.781167E-03	7.801000E+01
-3.002451E-01	-2.781320E-03	7.846000E+01
-3.002374E-01	-2.781244E-03	7.890000E+01
-3.002374E-01	-2.781474E-03	7.934000E+01
