CORRW ASCII
  CorrWare for Windows: Version 3.5f
  Potentiostatic	[-0.33 OC,3600 Sec][default]
  Date: 11-04-2019    Time: 16:29:05
   
   
  Open Circuit Potential (V): 0.0034
  Begin Information:          Cell Information
    Surface Area:             1
    Density:                  0
    Weight:                   0
    Polarity:                 0
    PolarityI:                0
    Corrosion Unit Type:      0
    Reference Type:           0
    Reference Potential:      0
    User-Defined Potential:   0
    Stern-Geary:              26
  End Information:            Cell Information
  Begin Pstat:                1287
    Pstat Title:              Instrument #1
    Booster Type:             0
    Booster Name:             None
    Current Range:            0
    Current Limit:            0
    Current LimitType:        2
    Sweep Type:               0
    Use Error Beep:           0
    Auxilary Type:            0
    iR Comp. Type:            0
    iR Ohms:                  0
    iR Time:                  27
    iR Ratio:                 255
    LP Filter Type:           1
    Drift Correction:         1
    Null Correction:          0
    Pstat Bandwidth Type:     2
    Gstat Bandwidth Type:     2
    External Input:           0
    SafetyMinV:               0
    SafetyMaxV:               10
    SafetyMinI:               0
    SafetyMaxI:               4
    SafetyMinQ:               0
    SafetyMaxQ:               1000
    SafetyMinT:               0
    SafetyMaxT:               50
    SafetyChT:                0
    SafetyMinVUse:            0
    SafetyMaxVUse:            0
    SafetyMinIUse:            0
    SafetyMaxIUse:            0
    SafetyMinQUse:            0
    SafetyMaxQUse:            0
    SafetyMinTUse:            0
    SafetyMaxTUse:            0
  End Pstat:                  1287
  Begin Experiment:           Potentiostatic	[-0.33 OC,3600 Sec][default]
    Data File
    Data Append:              0
    Comment Lines:            0
    Potential:                -0.33
    Potential Type:           0
    Total Time:               3600
    Time Units:               0
    Time Marker:              -1
    Measure Rate Type:        1
    Measure Rate #1:          2000
    Measure Rate #2:          1
    Measure Rate #3:          0.1
    Measure Rate #4:          2
    Use Threshold:            0
    Threshold I_Min:          -15
    Threshold I_Max:          15
    Threshold Delta:          5
    Threshold Time:           60
    Copy AuxV:                0
    Axes Type:                1
    Use Custom Pstat:         0
  End Experiment:             Potentiostatic	[-0.33 OC,3600 Sec][default]
  Data Points:                473
  E(Volts)	I(A/cm2)	T(Seconds)
End Comments
-3.560558E-01	-7.827374E-05	0.000000E+00
-3.268223E-01	-6.957269E-05	1.030000E+00
-3.268223E-01	-6.953582E-05	2.000000E+00
-3.268838E-01	-6.944365E-05	3.060000E+00
-3.268223E-01	-6.951124E-05	4.030000E+00
-3.268838E-01	-6.921629E-05	5.080000E+00
-3.268223E-01	-6.897665E-05	6.080000E+00
-3.268223E-01	-6.901966E-05	7.030000E+00
-3.268838E-01	-6.914870E-05	8.040000E+00
-3.269452E-01	-6.913641E-05	9.060000E+00
-3.269452E-01	-6.906882E-05	1.008000E+01
-3.269452E-01	-6.889061E-05	1.110000E+01
-3.269452E-01	-6.888447E-05	1.201000E+01
-3.269452E-01	-6.905039E-05	1.308000E+01
-3.268838E-01	-6.919786E-05	1.402000E+01
-3.268838E-01	-6.892134E-05	1.504000E+01
-3.269452E-01	-6.901351E-05	1.606000E+01
-3.269452E-01	-6.889676E-05	1.703000E+01
-3.269452E-01	-6.897665E-05	1.801000E+01
-3.269452E-01	-6.885375E-05	1.901000E+01
-3.268838E-01	-6.901966E-05	2.013000E+01
-3.268838E-01	-6.897664E-05	2.102000E+01
-3.268838E-01	-6.879230E-05	2.208000E+01
-3.268838E-01	-6.895821E-05	2.313000E+01
-3.269452E-01	-6.889676E-05	2.403000E+01
-3.268838E-01	-6.909339E-05	2.507000E+01
-3.269452E-01	-6.900122E-05	2.610000E+01
-3.269452E-01	-6.905653E-05	2.703000E+01
-3.268838E-01	-6.893363E-05	2.808000E+01
-3.268838E-01	-6.890905E-05	2.913000E+01
-3.268838E-01	-6.889676E-05	3.003000E+01
-3.268223E-01	-6.898893E-05	3.102000E+01
-3.268223E-01	-6.901966E-05	3.208000E+01
-3.268838E-01	-6.909340E-05	3.313000E+01
-3.268223E-01	-6.908111E-05	3.403000E+01
-3.268838E-01	-6.909340E-05	3.510000E+01
-3.268223E-01	-6.896435E-05	3.603000E+01
-3.268838E-01	-6.901966E-05	3.708000E+01
-3.268838E-01	-6.921015E-05	3.806000E+01
-3.268838E-01	-6.905038E-05	3.900000E+01
-3.268838E-01	-6.911797E-05	4.003000E+01
-3.269452E-01	-6.898893E-05	4.105000E+01
-3.268838E-01	-6.897664E-05	4.213000E+01
-3.269452E-01	-6.905653E-05	4.303000E+01
-3.269452E-01	-6.896435E-05	4.411000E+01
-3.269452E-01	-6.889676E-05	4.500000E+01
-3.269452E-01	-6.892134E-05	4.601000E+01
-3.268838E-01	-6.911183E-05	4.709000E+01
-3.268838E-01	-6.909339E-05	4.810000E+01
-3.268838E-01	-6.888447E-05	4.903000E+01
-3.268838E-01	-6.901965E-05	5.004000E+01
-3.269452E-01	-6.890904E-05	5.105000E+01
-3.268838E-01	-6.911183E-05	5.214000E+01
-3.268838E-01	-6.912412E-05	5.302000E+01
-3.268838E-01	-6.897665E-05	5.411000E+01
-3.269452E-01	-6.899508E-05	5.503000E+01
-3.268838E-01	-6.909954E-05	5.608000E+01
-3.269452E-01	-6.901965E-05	5.710000E+01
-3.269452E-01	-6.898893E-05	5.803000E+01
-3.268838E-01	-6.887833E-05	5.907000E+01
-3.268223E-01	-6.922243E-05	6.009000E+01
-3.268838E-01	-6.909340E-05	6.109000E+01
-3.268838E-01	-6.916714E-05	6.204000E+01
-3.268223E-01	-6.919786E-05	6.309000E+01
-3.268838E-01	-6.900123E-05	6.413000E+01
-3.268223E-01	-6.937606E-05	6.505000E+01
-3.268838E-01	-6.936991E-05	6.610000E+01
-3.268223E-01	-6.925316E-05	6.703000E+01
-3.268838E-01	-6.934534E-05	6.809000E+01
-3.268838E-01	-6.929003E-05	6.914000E+01
-3.268838E-01	-6.934533E-05	7.003000E+01
-3.268838E-01	-6.964029E-05	7.105000E+01
-3.268838E-01	-6.956040E-05	7.207000E+01
-3.268223E-01	-6.953582E-05	7.300000E+01
-3.268223E-01	-6.967100E-05	7.404000E+01
-3.268223E-01	-6.975089E-05	7.505000E+01
-3.268223E-01	-6.989836E-05	7.606000E+01
-3.268838E-01	-6.941907E-05	7.704000E+01
-3.268223E-01	-6.955425E-05	7.808000E+01
-3.268838E-01	-6.960956E-05	7.920000E+01
-3.268838E-01	-6.951738E-05	8.004000E+01
-3.268838E-01	-6.982463E-05	8.105000E+01
-3.268838E-01	-6.962800E-05	8.213000E+01
-3.268223E-01	-6.949281E-05	8.304000E+01
-3.268223E-01	-6.959726E-05	8.409000E+01
-3.268223E-01	-6.959113E-05	8.504000E+01
-3.268223E-01	-6.973246E-05	8.605000E+01
-3.268838E-01	-6.959113E-05	8.712000E+01
-3.268223E-01	-6.959113E-05	8.803000E+01
-3.268838E-01	-6.963414E-05	8.908000E+01
-3.268223E-01	-6.967715E-05	9.009000E+01
-3.268838E-01	-6.987993E-05	9.110000E+01
-3.268838E-01	-6.971401E-05	9.201000E+01
-3.268223E-01	-6.976932E-05	9.309000E+01
-3.268223E-01	-6.965872E-05	9.404000E+01
-3.268223E-01	-6.970788E-05	9.504000E+01
-3.268223E-01	-6.952968E-05	9.605000E+01
-3.268223E-01	-6.962185E-05	9.702000E+01
-3.268838E-01	-6.969558E-05	9.804000E+01
-3.268838E-01	-6.943750E-05	9.909000E+01
-3.269452E-01	-6.955425E-05	1.000900E+02
-3.269452E-01	-6.972016E-05	1.010800E+02
-3.268838E-01	-6.961570E-05	1.020200E+02
-3.269452E-01	-6.971402E-05	1.030100E+02
-3.269452E-01	-6.976318E-05	1.040900E+02
-3.268838E-01	-6.975703E-05	1.050000E+02
-3.269452E-01	-6.981233E-05	1.060300E+02
-3.269452E-01	-6.993523E-05	1.070500E+02
-3.268838E-01	-6.994138E-05	1.081300E+02
-3.268838E-01	-7.006427E-05	1.090400E+02
-3.268838E-01	-6.997825E-05	1.100400E+02
-3.268223E-01	-6.989222E-05	1.110500E+02
-3.268223E-01	-6.993524E-05	1.121100E+02
-3.268223E-01	-7.005199E-05	1.130200E+02
-3.268223E-01	-7.008271E-05	1.140900E+02
-3.268838E-01	-7.013186E-05	1.150400E+02
-3.268838E-01	-7.023018E-05	1.160900E+02
-3.268838E-01	-6.992294E-05	1.171400E+02
-3.268838E-01	-6.995367E-05	1.180300E+02
-3.269452E-01	-6.991065E-05	1.190900E+02
-3.269452E-01	-6.976318E-05	1.201000E+02
-3.268838E-01	-7.003355E-05	1.210100E+02
-3.269452E-01	-6.999054E-05	1.220300E+02
-3.269452E-01	-6.964029E-05	1.230900E+02
-3.269452E-01	-6.964643E-05	1.241400E+02
-3.268838E-01	-6.975704E-05	1.250400E+02
-3.269452E-01	-7.001511E-05	1.260900E+02
-3.268838E-01	-7.021789E-05	1.271400E+02
-3.268838E-01	-7.017488E-05	1.280200E+02
-3.269452E-01	-7.031621E-05	1.290600E+02
-3.268838E-01	-7.021175E-05	1.300500E+02
-3.268838E-01	-6.995367E-05	1.310000E+02
-3.269452E-01	-6.997825E-05	1.320500E+02
-3.269452E-01	-6.962800E-05	1.330200E+02
-3.269452E-01	-6.952968E-05	1.340400E+02
-3.269452E-01	-6.975089E-05	1.351000E+02
-3.268838E-01	-6.981233E-05	1.360100E+02
-3.269452E-01	-6.991065E-05	1.370300E+02
-3.269452E-01	-6.972631E-05	1.380100E+02
-3.269452E-01	-6.959113E-05	1.390500E+02
-3.268838E-01	-6.967715E-05	1.400500E+02
-3.268838E-01	-6.997211E-05	1.410600E+02
-3.268838E-01	-6.986150E-05	1.420000E+02
-3.269452E-01	-6.990451E-05	1.430700E+02
-3.269452E-01	-6.991066E-05	1.440700E+02
-3.268838E-01	-6.983077E-05	1.450000E+02
-3.268838E-01	-6.974475E-05	1.460500E+02
-3.268838E-01	-6.995982E-05	1.470000E+02
-3.269452E-01	-6.989837E-05	1.480400E+02
-3.268223E-01	-6.983692E-05	1.491000E+02
-3.268223E-01	-6.997211E-05	1.500000E+02
-3.268838E-01	-7.002740E-05	1.510500E+02
-3.268838E-01	-6.998439E-05	1.520300E+02
-3.268838E-01	-7.016874E-05	1.530000E+02
-3.268838E-01	-7.018717E-05	1.540500E+02
-3.268838E-01	-7.014416E-05	1.550600E+02
-3.268223E-01	-7.010114E-05	1.560800E+02
-3.268838E-01	-7.001511E-05	1.570500E+02
-3.268838E-01	-6.990451E-05	1.581000E+02
-3.268223E-01	-6.983077E-05	1.590000E+02
-3.268838E-01	-6.991681E-05	1.600000E+02
-3.268838E-01	-7.013186E-05	1.610500E+02
-3.268838E-01	-7.025477E-05	1.620300E+02
-3.268838E-01	-7.011958E-05	1.630600E+02
-3.268223E-01	-7.008271E-05	1.640500E+02
-3.268838E-01	-7.033464E-05	1.650800E+02
-3.268838E-01	-7.003355E-05	1.660300E+02
-3.268838E-01	-7.003355E-05	1.670500E+02
-3.268838E-01	-7.021175E-05	1.680800E+02
-3.269452E-01	-7.046983E-05	1.690100E+02
-3.268838E-01	-7.032850E-05	1.700400E+02
-3.268838E-01	-7.027320E-05	1.711000E+02
-3.268838E-01	-7.023018E-05	1.720000E+02
-3.269452E-01	-7.045140E-05	1.730500E+02
-3.269452E-01	-7.024862E-05	1.740700E+02
-3.269452E-01	-7.042068E-05	1.750000E+02
-3.269452E-01	-7.026705E-05	1.760500E+02
-3.269452E-01	-7.026705E-05	1.771000E+02
-3.268838E-01	-7.038380E-05	1.780000E+02
-3.268838E-01	-7.061731E-05	1.790500E+02
-3.268838E-01	-7.047597E-05	1.800600E+02
-3.268223E-01	-7.031007E-05	1.811000E+02
-3.268838E-01	-7.034079E-05	1.820200E+02
-3.268838E-01	-7.015030E-05	1.830300E+02
-3.268223E-01	-7.028549E-05	1.840800E+02
-3.268838E-01	-7.039610E-05	1.850500E+02
-3.268223E-01	-7.040224E-05	1.861000E+02
-3.268838E-01	-7.007042E-05	1.870800E+02
-3.268223E-01	-7.012572E-05	1.880500E+02
-3.268223E-01	-7.011343E-05	1.891000E+02
-3.268838E-01	-7.002740E-05	1.901000E+02
-3.268223E-01	-6.991680E-05	1.910800E+02
-3.268838E-01	-7.015030E-05	1.920400E+02
-3.268838E-01	-7.062960E-05	1.930500E+02
-3.268223E-01	-7.046983E-05	1.940000E+02
-3.268838E-01	-7.046983E-05	1.951500E+02
-3.268838E-01	-7.000282E-05	1.960500E+02
-3.268838E-01	-7.026705E-05	1.970700E+02
-3.268223E-01	-7.011343E-05	1.980800E+02
-3.268838E-01	-7.016260E-05	1.990500E+02
-3.268838E-01	-7.037151E-05	2.000500E+02
-3.268838E-01	-7.018718E-05	2.011000E+02
-3.268838E-01	-7.034079E-05	2.020400E+02
-3.268838E-01	-7.003970E-05	2.031000E+02
-3.268223E-01	-6.999668E-05	2.040000E+02
-3.268223E-01	-7.005814E-05	2.050500E+02
-3.268838E-01	-6.998439E-05	2.061000E+02
-3.268838E-01	-7.010729E-05	2.070100E+02
-3.268838E-01	-7.015646E-05	2.080600E+02
-3.268838E-01	-6.998439E-05	2.091000E+02
-3.268223E-01	-7.034079E-05	2.101000E+02
-3.268223E-01	-7.026705E-05	2.110200E+02
-3.268838E-01	-7.020561E-05	2.121000E+02
-3.268838E-01	-7.016259E-05	2.130600E+02
-3.268223E-01	-7.006428E-05	2.140300E+02
-3.268838E-01	-7.024862E-05	2.150000E+02
-3.268223E-01	-7.005813E-05	2.160000E+02
-3.268838E-01	-7.002740E-05	2.170500E+02
-3.268223E-01	-7.061116E-05	2.180100E+02
-3.269452E-01	-7.058658E-05	2.190200E+02
-3.268838E-01	-7.051899E-05	2.200600E+02
-3.268838E-01	-7.049442E-05	2.210700E+02
-3.269452E-01	-7.066032E-05	2.220000E+02
-3.268838E-01	-7.034079E-05	2.230600E+02
-3.269452E-01	-7.041452E-05	2.240600E+02
-3.269452E-01	-7.056200E-05	2.250100E+02
-3.269452E-01	-7.054972E-05	2.260100E+02
-3.268838E-01	-7.056200E-05	2.270700E+02
-3.269452E-01	-7.102286E-05	2.280800E+02
-3.269452E-01	-7.084467E-05	2.290100E+02
-3.268838E-01	-7.109046E-05	2.300800E+02
-3.269452E-01	-7.107817E-05	2.310200E+02
-3.269452E-01	-7.085696E-05	2.320700E+02
-3.268838E-01	-7.099214E-05	2.330100E+02
-3.269452E-01	-7.097370E-05	2.340600E+02
-3.269452E-01	-7.077093E-05	2.350000E+02
-3.268838E-01	-7.112118E-05	2.360600E+02
-3.269452E-01	-7.052514E-05	2.370700E+02
-3.268838E-01	-7.064804E-05	2.380100E+02
-3.269452E-01	-7.066647E-05	2.390500E+02
-3.269452E-01	-7.086925E-05	2.400600E+02
-3.269452E-01	-7.065418E-05	2.410700E+02
-3.269452E-01	-7.051899E-05	2.421100E+02
-3.269452E-01	-7.037766E-05	2.430300E+02
-3.269452E-01	-7.067876E-05	2.440100E+02
-3.269452E-01	-7.042068E-05	2.450100E+02
-3.269452E-01	-7.034694E-05	2.460600E+02
-3.269452E-01	-7.054972E-05	2.470600E+02
-3.269452E-01	-7.048213E-05	2.481000E+02
-3.268838E-01	-7.032236E-05	2.490600E+02
-3.268223E-01	-7.061117E-05	2.500300E+02
-3.268838E-01	-7.059273E-05	2.510700E+02
-3.268223E-01	-7.020561E-05	2.520100E+02
-3.268223E-01	-7.021175E-05	2.530600E+02
-3.268223E-01	-7.023633E-05	2.541100E+02
-3.268838E-01	-7.019332E-05	2.550100E+02
-3.268838E-01	-7.016260E-05	2.560600E+02
-3.268838E-01	-7.023633E-05	2.570700E+02
-3.268838E-01	-7.032236E-05	2.580100E+02
-3.268838E-01	-7.038995E-05	2.590300E+02
-3.268223E-01	-7.053128E-05	2.601000E+02
-3.268838E-01	-7.034079E-05	2.610800E+02
-3.268223E-01	-7.068490E-05	2.620100E+02
-3.268223E-01	-7.050056E-05	2.630000E+02
-3.268838E-01	-7.091840E-05	2.640500E+02
-3.268838E-01	-7.104745E-05	2.650800E+02
-3.268838E-01	-7.097370E-05	2.660600E+02
-3.268223E-01	-7.094298E-05	2.670600E+02
-3.268838E-01	-7.109046E-05	2.680300E+02
-3.268838E-01	-7.040225E-05	2.690600E+02
-3.268838E-01	-7.058658E-05	2.700400E+02
-3.269452E-01	-7.055586E-05	2.710100E+02
-3.269452E-01	-7.085081E-05	2.720300E+02
-3.269452E-01	-7.096756E-05	2.730500E+02
-3.269452E-01	-7.101058E-05	2.740000E+02
-3.268838E-01	-7.107203E-05	2.750600E+02
-3.269452E-01	-7.090612E-05	2.761100E+02
-3.268838E-01	-7.082008E-05	2.770100E+02
-3.269452E-01	-7.095528E-05	2.780500E+02
-3.268838E-01	-7.074021E-05	2.791100E+02
-3.268838E-01	-7.078322E-05	2.800700E+02
-3.269452E-01	-7.087539E-05	2.811000E+02
-3.268838E-01	-7.094913E-05	2.820600E+02
-3.268838E-01	-7.081394E-05	2.830700E+02
-3.269452E-01	-7.059888E-05	2.840900E+02
-3.269452E-01	-7.077093E-05	2.850700E+02
-3.269452E-01	-7.118264E-05	2.860800E+02
-3.268838E-01	-7.118264E-05	2.870100E+02
-3.269452E-01	-7.112118E-05	2.880600E+02
-3.268838E-01	-7.097370E-05	2.891200E+02
-3.268838E-01	-7.084467E-05	2.900100E+02
-3.268838E-01	-7.069719E-05	2.911000E+02
-3.268223E-01	-7.104130E-05	2.920300E+02
-3.268223E-01	-7.115190E-05	2.930800E+02
-3.268838E-01	-7.093069E-05	2.940100E+02
-3.268838E-01	-7.139770E-05	2.950500E+02
-3.268223E-01	-7.082622E-05	2.960800E+02
-3.268838E-01	-7.108431E-05	2.970100E+02
-3.268223E-01	-7.091226E-05	2.980200E+02
-3.268223E-01	-7.091840E-05	2.990400E+02
-3.268223E-01	-7.149602E-05	3.000300E+02
-3.268838E-01	-7.127480E-05	3.010500E+02
-3.268838E-01	-7.122564E-05	3.020000E+02
-3.268223E-01	-7.136083E-05	3.030300E+02
-3.268838E-01	-7.179711E-05	3.040800E+02
-3.268838E-01	-7.123793E-05	3.050100E+02
-3.268223E-01	-7.099214E-05	3.060900E+02
-3.268838E-01	-7.182784E-05	3.070200E+02
-3.268838E-01	-7.190157E-05	3.080000E+02
-3.268838E-01	-7.153903E-05	3.090500E+02
-3.268838E-01	-7.120721E-05	3.100000E+02
-3.268838E-01	-7.130553E-05	3.110700E+02
-3.268223E-01	-7.157590E-05	3.121000E+02
-3.268223E-01	-7.148372E-05	3.130300E+02
-3.268838E-01	-7.122564E-05	3.140700E+02
-3.268223E-01	-7.147144E-05	3.150200E+02
-3.268223E-01	-7.169264E-05	3.160300E+02
-3.268223E-01	-7.162507E-05	3.170500E+02
-3.268838E-01	-7.125022E-05	3.180200E+02
-3.268223E-01	-7.131168E-05	3.190300E+02
-3.268838E-01	-7.137312E-05	3.200700E+02
-3.268838E-01	-7.137312E-05	3.211200E+02
-3.268223E-01	-7.105359E-05	3.220100E+02
-3.268838E-01	-7.133625E-05	3.230300E+02
-3.268223E-01	-7.119492E-05	3.241100E+02
-3.268838E-01	-7.172952E-05	3.250900E+02
-3.268223E-01	-7.125022E-05	3.260200E+02
-3.268223E-01	-7.096757E-05	3.270300E+02
-3.268838E-01	-7.094298E-05	3.280000E+02
-3.268838E-01	-7.119492E-05	3.290200E+02
-3.268223E-01	-7.112118E-05	3.301000E+02
-3.268838E-01	-7.124407E-05	3.310700E+02
-3.268223E-01	-7.152060E-05	3.320700E+02
-3.268838E-01	-7.133625E-05	3.331000E+02
-3.268223E-01	-7.129323E-05	3.340700E+02
-3.268223E-01	-7.136083E-05	3.350800E+02
-3.268838E-01	-7.101672E-05	3.360200E+02
-3.268838E-01	-7.131168E-05	3.370700E+02
-3.268838E-01	-7.153289E-05	3.380200E+02
-3.268838E-01	-7.147144E-05	3.390400E+02
-3.268838E-01	-7.133010E-05	3.400700E+02
-3.268838E-01	-7.112732E-05	3.411200E+02
-3.268838E-01	-7.185856E-05	3.420200E+02
-3.268838E-01	-7.112732E-05	3.430700E+02
-3.268838E-01	-7.186471E-05	3.441200E+02
-3.268223E-01	-7.129324E-05	3.451000E+02
-3.268838E-01	-7.184627E-05	3.460400E+02
-3.268838E-01	-7.166807E-05	3.471200E+02
-3.268223E-01	-7.171723E-05	3.480200E+02
-3.268838E-01	-7.220882E-05	3.490700E+02
-3.268838E-01	-7.176639E-05	3.500400E+02
-3.269452E-01	-7.202448E-05	3.511100E+02
-3.269452E-01	-7.148987E-05	3.521000E+02
-3.269452E-01	-7.198760E-05	3.530600E+02
-3.269452E-01	-7.177253E-05	3.540900E+02
-3.269452E-01	-7.214737E-05	3.550300E+02
-3.268838E-01	-7.262052E-05	3.560700E+02
-3.268838E-01	-7.202448E-05	3.571300E+02
-3.268838E-01	-7.254678E-05	3.580600E+02
-3.269452E-01	-7.272498E-05	3.591200E+02
-3.269452E-01	-7.244846E-05	3.600200E+02
-3.269452E-01	-7.178482E-05	3.610100E+02
-3.269452E-01	-7.237473E-05	3.620400E+02
-3.269452E-01	-7.252221E-05	3.631200E+02
-3.269452E-01	-7.223339E-05	3.640000E+02
-3.269452E-01	-7.276185E-05	3.650600E+02
-3.269452E-01	-7.231942E-05	3.660300E+02
-3.269452E-01	-7.249762E-05	3.670700E+02
-3.268838E-01	-7.211664E-05	3.681200E+02
-3.269452E-01	-7.278642E-05	3.690000E+02
-3.268838E-01	-7.268810E-05	3.700200E+02
-3.269452E-01	-7.254064E-05	3.710400E+02
-3.269452E-01	-7.187085E-05	3.721200E+02
-3.269452E-01	-7.207363E-05	3.730800E+02
-3.268838E-01	-7.223339E-05	3.741300E+02
-3.269452E-01	-7.310596E-05	3.750200E+02
-3.269452E-01	-7.276799E-05	3.760800E+02
-3.268838E-01	-7.265738E-05	3.770600E+02
-3.269452E-01	-7.236243E-05	3.780300E+02
-3.268838E-01	-7.241774E-05	3.790100E+02
-3.268838E-01	-7.293390E-05	3.800100E+02
-3.268838E-01	-7.286631E-05	3.810100E+02
-3.268838E-01	-7.260822E-05	3.820800E+02
-3.268838E-01	-7.235014E-05	3.830300E+02
-3.268838E-01	-7.219652E-05	3.840400E+02
-3.268838E-01	-7.225182E-05	3.850500E+02
-3.268838E-01	-7.228870E-05	3.861300E+02
-3.268838E-01	-7.229484E-05	3.870300E+02
-3.268838E-01	-7.254063E-05	3.880800E+02
-3.268838E-01	-7.193845E-05	3.890300E+02
-3.269452E-01	-7.216580E-05	3.900300E+02
-3.269452E-01	-7.206134E-05	3.910800E+02
-3.269452E-01	-7.203061E-05	3.920600E+02
-3.269452E-01	-7.236858E-05	3.930300E+02
-3.269452E-01	-7.300149E-05	3.940800E+02
-3.268838E-01	-7.325958E-05	3.950800E+02
-3.269452E-01	-7.361597E-05	3.960300E+02
-3.269452E-01	-7.238088E-05	3.970300E+02
-3.268838E-01	-7.241774E-05	3.980800E+02
-3.268223E-01	-7.290318E-05	3.991300E+02
-3.268838E-01	-7.242389E-05	4.000300E+02
-3.268838E-01	-7.243617E-05	4.010700E+02
-3.268838E-01	-7.261437E-05	4.021000E+02
-3.268838E-01	-7.279257E-05	4.030200E+02
-3.268223E-01	-7.241774E-05	4.040800E+02
-3.268838E-01	-7.246075E-05	4.051300E+02
-3.268838E-01	-7.241159E-05	4.060300E+02
-3.268223E-01	-7.236243E-05	4.070800E+02
-3.268223E-01	-7.258365E-05	4.081300E+02
-3.269452E-01	-7.241774E-05	4.090200E+02
-3.269452E-01	-7.338247E-05	4.100300E+02
-3.269452E-01	-7.243617E-05	4.110800E+02
-3.269452E-01	-7.273727E-05	4.120700E+02
-3.268838E-01	-7.335175E-05	4.130200E+02
-3.268838E-01	-7.355453E-05	4.140800E+02
-3.269452E-01	-7.329644E-05	4.151300E+02
-3.268838E-01	-7.299535E-05	4.160000E+02
-3.268838E-01	-7.255292E-05	4.170700E+02
-3.269452E-01	-7.300149E-05	4.181300E+02
-3.268838E-01	-7.321656E-05	4.190300E+02
-3.269452E-01	-7.332102E-05	4.200400E+02
-3.269452E-01	-7.434106E-05	4.210600E+02
-3.268838E-01	-7.356067E-05	4.220300E+02
-3.268838E-01	-7.365899E-05	4.230800E+02
-3.269452E-01	-7.414443E-05	4.240200E+02
-3.268838E-01	-7.383104E-05	4.250800E+02
-3.268838E-01	-7.434106E-05	4.261000E+02
-3.269452E-01	-7.434106E-05	4.270300E+02
-3.269452E-01	-7.416901E-05	4.280800E+02
-3.269452E-01	-7.404612E-05	4.291300E+02
-3.269452E-01	-7.410142E-05	4.301000E+02
-3.269452E-01	-7.408913E-05	4.310400E+02
-3.268838E-01	-7.394165E-05	4.320600E+02
-3.269452E-01	-7.369586E-05	4.330400E+02
-3.269452E-01	-7.407069E-05	4.340900E+02
-3.269452E-01	-7.432877E-05	4.351300E+02
-3.269452E-01	-7.415057E-05	4.360500E+02
-3.268838E-01	-7.387406E-05	4.370700E+02
-3.269452E-01	-7.425504E-05	4.380400E+02
-3.268838E-01	-7.369586E-05	4.390900E+02
-3.269452E-01	-7.488181E-05	4.400800E+02
-3.268838E-01	-7.619680E-05	4.410200E+02
-3.269452E-01	-7.474662E-05	4.420800E+02
-3.269452E-01	-7.620908E-05	4.430700E+02
-3.269452E-01	-7.570521E-05	4.440400E+02
-3.269452E-01	-7.437793E-05	4.450900E+02
-3.269452E-01	-7.583425E-05	4.460700E+02
-3.268838E-01	-7.541641E-05	4.470300E+02
-3.268838E-01	-7.574822E-05	4.480500E+02
-3.268838E-01	-7.615992E-05	4.491900E+02
-3.268838E-01	-7.464831E-05	4.500900E+02
-3.268838E-01	-7.538568E-05	4.510400E+02
-3.268223E-01	-7.536725E-05	4.520900E+02
-3.268838E-01	-7.783131E-05	4.530400E+02
-3.268838E-01	-7.738889E-05	4.540500E+02
-3.268223E-01	-7.692802E-05	4.551000E+02
-3.268838E-01	-7.712466E-05	4.560500E+02
-3.268838E-01	-7.654705E-05	4.570900E+02
-3.268223E-01	-7.755480E-05	4.580400E+02
-3.269452E-01	-7.821229E-05	4.590500E+02
-3.269452E-01	-7.224568E-05	4.600900E+02
-3.269452E-01	-7.840279E-05	4.611400E+02
-3.269452E-01	-7.927534E-05	4.620300E+02
-3.268838E-01	-7.898039E-05	4.630400E+02
-3.269452E-01	-7.797879E-05	4.640900E+02
-3.269452E-01	-7.904798E-05	4.650400E+02
-3.269452E-01	-7.981609E-05	4.660100E+02
-3.269452E-01	-8.043057E-05	4.671000E+02
-3.269452E-01	-7.942897E-05	4.680100E+02
-3.268838E-01	-8.053504E-05	4.690900E+02
-3.268838E-01	-7.791119E-05	4.700700E+02
-3.268223E-01	-7.945969E-05	4.711400E+02
-3.268223E-01	-8.069479E-05	4.720500E+02
