CORRW ASCII
  CorrWare for Windows: Version 3.5f
  Potentiostatic	[-0.33 OC,3600 Sec][default]
  Date: 11-04-2019    Time: 16:55:31
   
   
  Open Circuit Potential (V): 0.0033
  Begin Information:          Cell Information
    Surface Area:             1
    Density:                  0
    Weight:                   0
    Polarity:                 0
    PolarityI:                0
    Corrosion Unit Type:      0
    Reference Type:           0
    Reference Potential:      0
    User-Defined Potential:   0
    Stern-Geary:              26
  End Information:            Cell Information
  Begin Pstat:                1287
    Pstat Title:              Instrument #1
    Booster Type:             0
    Booster Name:             None
    Current Range:            0
    Current Limit:            0
    Current LimitType:        0
    Sweep Type:               0
    Use Error Beep:           1
    Auxilary Type:            0
    iR Comp. Type:            0
    iR Ohms:                  0
    iR Time:                  27
    iR Ratio:                 255
    LP Filter Type:           1
    Drift Correction:         1
    Null Correction:          0
    Pstat Bandwidth Type:     2
    Gstat Bandwidth Type:     2
    External Input:           0
    SafetyMinV:               0
    SafetyMaxV:               10
    SafetyMinI:               0
    SafetyMaxI:               4
    SafetyMinQ:               0
    SafetyMaxQ:               1000
    SafetyMinT:               0
    SafetyMaxT:               50
    SafetyChT:                0
    SafetyMinVUse:            0
    SafetyMaxVUse:            0
    SafetyMinIUse:            0
    SafetyMaxIUse:            0
    SafetyMinQUse:            0
    SafetyMaxQUse:            0
    SafetyMinTUse:            0
    SafetyMaxTUse:            0
  End Pstat:                  1287
  Begin Experiment:           Potentiostatic	[-0.33 OC,3600 Sec][default]
    Data File
    Data Append:              0
    Comment Lines:            0
    Potential:                -0.33
    Potential Type:           0
    Total Time:               3600
    Time Units:               0
    Time Marker:              -1
    Measure Rate Type:        1
    Measure Rate #1:          2000
    Measure Rate #2:          1
    Measure Rate #3:          0.1
    Measure Rate #4:          2
    Use Threshold:            0
    Threshold I_Min:          -15
    Threshold I_Max:          15
    Threshold Delta:          5
    Threshold Time:           60
    Copy AuxV:                0
    Axes Type:                1
    Use Custom Pstat:         0
  End Experiment:             Potentiostatic	[-0.33 OC,3600 Sec][default]
  Data Points:                228
  E(Volts)	I(A/cm2)	T(Seconds)
End Comments
-1.605113E-01	-2.757906E-05	0.000000E+00
-3.270680E-01	-5.392800E-05	1.140000E+00
-3.270066E-01	-5.401403E-05	2.010000E+00
-3.270066E-01	-5.413078E-05	3.090000E+00
-3.270066E-01	-5.399559E-05	4.140000E+00
-3.270066E-01	-5.392800E-05	5.000000E+00
-3.270066E-01	-5.392186E-05	6.020000E+00
-3.270066E-01	-5.368835E-05	7.060000E+00
-3.270066E-01	-5.376209E-05	8.000000E+00
-3.270066E-01	-5.390957E-05	9.050000E+00
-3.270680E-01	-5.394644E-05	1.005000E+01
-3.270066E-01	-5.395258E-05	1.109000E+01
-3.270066E-01	-5.395873E-05	1.200000E+01
-3.270066E-01	-5.393415E-05	1.302000E+01
-3.270066E-01	-5.394644E-05	1.406000E+01
-3.269452E-01	-5.393415E-05	1.510000E+01
-3.270066E-01	-5.386041E-05	1.604000E+01
-3.270680E-01	-5.394030E-05	1.709000E+01
-3.270066E-01	-5.397102E-05	1.800000E+01
-3.269452E-01	-5.394644E-05	1.902000E+01
-3.269452E-01	-5.386656E-05	2.004000E+01
-3.270066E-01	-5.392186E-05	2.109000E+01
-3.269452E-01	-5.390343E-05	2.207000E+01
-3.269452E-01	-5.387270E-05	2.304000E+01
-3.269452E-01	-5.409391E-05	2.403000E+01
-3.269452E-01	-5.420452E-05	2.509000E+01
-3.269452E-01	-5.395873E-05	2.604000E+01
-3.269452E-01	-5.406933E-05	2.702000E+01
-3.269452E-01	-5.417994E-05	2.809000E+01
-3.270066E-01	-5.402632E-05	2.911000E+01
-3.270066E-01	-5.392186E-05	3.009000E+01
-3.270066E-01	-5.381740E-05	3.104000E+01
-3.270066E-01	-5.397102E-05	3.209000E+01
-3.270066E-01	-5.429670E-05	3.314000E+01
-3.270680E-01	-5.393415E-05	3.404000E+01
-3.270066E-01	-5.413078E-05	3.506000E+01
-3.269452E-01	-5.394029E-05	3.601000E+01
-3.270066E-01	-5.392186E-05	3.708000E+01
-3.270066E-01	-5.409391E-05	3.802000E+01
-3.270066E-01	-5.398331E-05	3.904000E+01
-3.270066E-01	-5.394030E-05	4.004000E+01
-3.270066E-01	-5.393415E-05	4.110000E+01
-3.270066E-01	-5.403861E-05	4.214000E+01
-3.270066E-01	-5.410621E-05	4.304000E+01
-3.270680E-01	-5.388499E-05	4.410000E+01
-3.270066E-01	-5.389113E-05	4.501000E+01
-3.270066E-01	-5.374366E-05	4.605000E+01
-3.270066E-01	-5.390957E-05	4.700000E+01
-3.270066E-01	-5.398331E-05	4.805000E+01
-3.269452E-01	-5.399559E-05	4.909000E+01
-3.269452E-01	-5.413079E-05	5.010000E+01
-3.269452E-01	-5.417994E-05	5.104000E+01
-3.270066E-01	-5.410621E-05	5.206000E+01
-3.269452E-01	-5.396487E-05	5.300000E+01
-3.269452E-01	-5.402018E-05	5.404000E+01
-3.269452E-01	-5.410006E-05	5.510000E+01
-3.270066E-01	-5.414307E-05	5.614000E+01
-3.269452E-01	-5.421067E-05	5.705000E+01
-3.269452E-01	-5.416766E-05	5.800000E+01
-3.270066E-01	-5.406933E-05	5.901000E+01
-3.269452E-01	-5.405090E-05	6.005000E+01
-3.270066E-01	-5.407548E-05	6.103000E+01
-3.270066E-01	-5.410006E-05	6.200000E+01
-3.270066E-01	-5.421067E-05	6.300000E+01
-3.270066E-01	-5.416151E-05	6.402000E+01
-3.270066E-01	-5.398331E-05	6.510000E+01
-3.270066E-01	-5.403246E-05	6.605000E+01
-3.270680E-01	-5.398945E-05	6.710000E+01
-3.270066E-01	-5.401404E-05	6.800000E+01
-3.270066E-01	-5.384812E-05	6.905000E+01
-3.269452E-01	-5.380511E-05	7.005000E+01
-3.269452E-01	-5.384812E-05	7.106000E+01
-3.269452E-01	-5.390343E-05	7.200000E+01
-3.269452E-01	-5.391572E-05	7.305000E+01
-3.269452E-01	-5.389728E-05	7.409000E+01
-3.269452E-01	-5.394030E-05	7.507000E+01
-3.270066E-01	-5.504021E-05	7.615000E+01
-3.269452E-01	-5.511395E-05	7.704000E+01
-3.269452E-01	-5.516925E-05	7.800000E+01
-3.270680E-01	-5.531059E-05	7.905000E+01
-3.270066E-01	-5.536589E-05	8.004000E+01
-3.269452E-01	-5.513853E-05	8.110000E+01
-3.270066E-01	-5.525529E-05	8.207000E+01
-3.270066E-01	-5.528601E-05	8.303000E+01
-3.270066E-01	-5.537818E-05	8.410000E+01
-3.270066E-01	-5.532288E-05	8.500000E+01
-3.270066E-01	-5.551337E-05	8.603000E+01
-3.270066E-01	-5.550108E-05	8.700000E+01
-3.270066E-01	-5.553180E-05	8.805000E+01
-3.270680E-01	-5.538433E-05	8.910000E+01
-3.270066E-01	-5.541505E-05	9.000000E+01
-3.270066E-01	-5.540891E-05	9.105000E+01
-3.269452E-01	-5.545192E-05	9.210000E+01
-3.270066E-01	-5.528601E-05	9.308000E+01
-3.270680E-01	-5.527986E-05	9.403000E+01
-3.270066E-01	-5.518155E-05	9.506000E+01
-3.270066E-01	-5.522456E-05	9.600000E+01
-3.270066E-01	-5.516926E-05	9.702000E+01
-3.270066E-01	-5.517541E-05	9.807000E+01
-3.269452E-01	-5.528601E-05	9.907000E+01
-3.269452E-01	-5.528601E-05	1.001000E+02
-3.269452E-01	-5.534131E-05	1.010000E+02
-3.269452E-01	-5.527371E-05	1.020200E+02
-3.269452E-01	-5.521841E-05	1.030000E+02
-3.269452E-01	-5.572229E-05	1.040000E+02
-3.270066E-01	-5.566084E-05	1.050500E+02
-3.269452E-01	-5.535974E-05	1.061000E+02
-3.269452E-01	-5.543963E-05	1.070100E+02
-3.269452E-01	-5.573458E-05	1.080500E+02
-3.270066E-01	-5.569771E-05	1.091000E+02
-3.270066E-01	-5.540891E-05	1.100000E+02
-3.270680E-01	-5.552566E-05	1.110400E+02
-3.270066E-01	-5.559325E-05	1.120700E+02
-3.270066E-01	-5.546421E-05	1.130100E+02
-3.270066E-01	-5.545806E-05	1.140200E+02
-3.270066E-01	-5.540276E-05	1.151000E+02
-3.270066E-01	-5.548878E-05	1.160000E+02
-3.270066E-01	-5.556867E-05	1.170500E+02
-3.270066E-01	-5.540891E-05	1.180700E+02
-3.269452E-01	-5.525529E-05	1.190000E+02
-3.269452E-01	-5.541505E-05	1.200000E+02
-3.270066E-01	-5.543963E-05	1.210200E+02
-3.269452E-01	-5.544577E-05	1.220400E+02
-3.269452E-01	-5.531673E-05	1.230000E+02
-3.269452E-01	-5.532288E-05	1.240500E+02
-3.269452E-01	-5.531059E-05	1.250100E+02
-3.269452E-01	-5.531059E-05	1.260400E+02
-3.269452E-01	-5.532902E-05	1.270400E+02
-3.269452E-01	-5.535360E-05	1.280100E+02
-3.269452E-01	-5.518769E-05	1.290500E+02
-3.270066E-01	-5.512010E-05	1.300500E+02
-3.270066E-01	-5.519998E-05	1.311000E+02
-3.270066E-01	-5.521227E-05	1.320000E+02
-3.270066E-01	-5.539047E-05	1.330500E+02
-3.270066E-01	-5.530444E-05	1.341100E+02
-3.270066E-01	-5.524299E-05	1.350200E+02
-3.270066E-01	-5.524299E-05	1.360700E+02
-3.270066E-01	-5.538432E-05	1.370100E+02
-3.270066E-01	-5.534131E-05	1.380500E+02
-3.270066E-01	-5.513239E-05	1.390100E+02
-3.270066E-01	-5.519998E-05	1.400100E+02
-3.270066E-01	-5.534745E-05	1.410500E+02
-3.270066E-01	-5.518769E-05	1.421000E+02
-3.270066E-01	-5.512624E-05	1.430100E+02
-3.270066E-01	-5.528600E-05	1.440500E+02
-3.270066E-01	-5.520612E-05	1.451000E+02
-3.270680E-01	-5.524299E-05	1.460000E+02
-3.270066E-01	-5.513239E-05	1.470500E+02
-3.270066E-01	-5.507708E-05	1.481100E+02
-3.269452E-01	-5.502793E-05	1.490200E+02
-3.270066E-01	-5.516311E-05	1.500600E+02
-3.269452E-01	-5.534131E-05	1.511100E+02
-3.269452E-01	-5.526143E-05	1.520100E+02
-3.270066E-01	-5.524299E-05	1.530600E+02
-3.269452E-01	-5.536589E-05	1.541100E+02
-3.269452E-01	-5.526757E-05	1.550100E+02
-3.269452E-01	-5.550722E-05	1.560500E+02
-3.269452E-01	-5.549493E-05	1.571100E+02
-3.269452E-01	-5.550722E-05	1.581600E+02
-3.269452E-01	-5.535975E-05	1.590600E+02
-3.269452E-01	-5.519998E-05	1.600600E+02
-3.269452E-01	-5.539047E-05	1.611100E+02
-3.270066E-01	-5.520612E-05	1.620100E+02
-3.269452E-01	-5.518155E-05	1.630600E+02
-3.269452E-01	-5.529215E-05	1.640100E+02
-3.270066E-01	-5.534132E-05	1.650200E+02
-3.270066E-01	-5.517540E-05	1.660300E+02
-3.269452E-01	-5.529830E-05	1.670100E+02
-3.269452E-01	-5.529830E-05	1.680200E+02
-3.270066E-01	-5.535360E-05	1.690800E+02
-3.270680E-01	-5.535974E-05	1.700100E+02
-3.270066E-01	-5.523071E-05	1.710300E+02
-3.270066E-01	-5.545806E-05	1.720500E+02
-3.270066E-01	-5.537818E-05	1.730000E+02
-3.270066E-01	-5.542734E-05	1.740300E+02
-3.270066E-01	-5.536589E-05	1.750700E+02
-3.270066E-01	-5.523071E-05	1.760100E+02
-3.270066E-01	-5.516926E-05	1.770400E+02
-3.270066E-01	-5.524299E-05	1.780700E+02
-3.270680E-01	-5.548264E-05	1.790100E+02
-3.270066E-01	-5.563626E-05	1.800100E+02
-3.270066E-01	-5.571000E-05	1.810600E+02
-3.270066E-01	-5.545806E-05	1.820400E+02
-3.270066E-01	-5.553180E-05	1.830200E+02
-3.270066E-01	-5.551951E-05	1.840300E+02
-3.270066E-01	-5.566698E-05	1.851100E+02
-3.270680E-01	-5.538432E-05	1.860900E+02
-3.270066E-01	-5.547035E-05	1.870600E+02
-3.270066E-01	-5.555023E-05	1.880500E+02
-3.269452E-01	-5.518769E-05	1.890100E+02
-3.269452E-01	-5.525529E-05	1.900900E+02
-3.269452E-01	-5.550108E-05	1.910100E+02
-3.269452E-01	-5.545807E-05	1.920600E+02
-3.269452E-01	-5.539661E-05	1.930100E+02
-3.270066E-01	-5.550108E-05	1.940300E+02
-3.270066E-01	-5.535360E-05	1.950500E+02
-3.269452E-01	-5.547650E-05	1.960700E+02
-3.269452E-01	-5.539661E-05	1.970100E+02
-3.270066E-01	-5.544577E-05	1.980600E+02
-3.269452E-01	-5.560554E-05	1.990700E+02
-3.269452E-01	-5.556252E-05	2.000200E+02
-3.269452E-01	-5.545191E-05	2.011100E+02
-3.269452E-01	-5.552566E-05	2.020100E+02
-3.269452E-01	-5.556867E-05	2.030900E+02
-3.269452E-01	-5.558096E-05	2.040200E+02
-3.269452E-01	-5.562397E-05	2.050600E+02
-3.269452E-01	-5.543348E-05	2.060800E+02
-3.269452E-01	-5.553794E-05	2.070100E+02
-3.269452E-01	-5.551951E-05	2.080700E+02
-3.270066E-01	-5.566698E-05	2.091100E+02
-3.270066E-01	-5.561169E-05	2.100100E+02
-3.270066E-01	-5.555638E-05	2.110300E+02
-3.270066E-01	-5.566698E-05	2.121100E+02
-3.270066E-01	-5.567313E-05	2.130100E+02
-3.270066E-01	-5.562397E-05	2.140700E+02
-3.270680E-01	-5.565469E-05	2.150200E+02
-3.270066E-01	-5.535974E-05	2.160300E+02
-3.270066E-01	-5.537203E-05	2.170400E+02
-3.270680E-01	-5.544577E-05	2.180200E+02
-3.270066E-01	-5.542119E-05	2.190600E+02
-3.270066E-01	-5.564240E-05	2.200600E+02
-3.270680E-01	-5.555638E-05	2.210000E+02
-3.269452E-01	-5.540276E-05	2.220200E+02
-3.270066E-01	-5.548264E-05	2.230700E+02
-3.270066E-01	-5.537818E-05	2.240200E+02
-3.270066E-01	-5.535360E-05	2.250000E+02
-3.270066E-01	-5.535974E-05	2.260400E+02
-3.270066E-01	-5.548264E-05	2.271200E+02
