CORRW ASCII
  CorrWare for Windows: Version 3.5f
  Open Circuit	[50 Hour][default]	OCV RampDownT.cor
  Date: 11-06-2019    Time: 07:48:54
   
   
  Open Circuit Potential (V): -0.0015743
  Begin Information:          Cell Information
    Surface Area:             1
    Density:                  0
    Weight:                   0
    Polarity:                 0
    PolarityI:                0
    Corrosion Unit Type:      0
    Reference Type:           0
    Reference Potential:      0
    User-Defined Potential:   0
    Stern-Geary:              26
  End Information:            Cell Information
  Begin Pstat:                1287
    Pstat Title:              Instrument #1
    Booster Type:             0
    Booster Name:             None
    Current Range:            0
    Current Limit:            0
    Current LimitType:        0
    Sweep Type:               0
    Use Error Beep:           1
    Auxilary Type:            0
    iR Comp. Type:            0
    iR Ohms:                  0
    iR Time:                  27
    iR Ratio:                 255
    LP Filter Type:           2
    Drift Correction:         1
    Null Correction:          0
    Pstat Bandwidth Type:     2
    Gstat Bandwidth Type:     2
    External Input:           0
    SafetyMinV:               0
    SafetyMaxV:               10
    SafetyMinI:               0
    SafetyMaxI:               4
    SafetyMinQ:               0
    SafetyMaxQ:               1000
    SafetyMinT:               0
    SafetyMaxT:               50
    SafetyChT:                0
    SafetyMinVUse:            0
    SafetyMaxVUse:            0
    SafetyMinIUse:            0
    SafetyMaxIUse:            0
    SafetyMinQUse:            0
    SafetyMaxQUse:            0
    SafetyMinTUse:            0
    SafetyMaxTUse:            0
  End Pstat:                  1287
  Begin Experiment:           Open Circuit	[50 Hour][default]	OCV RampDownT.cor
    Data File:                Z:\191101_Amezawa\fr_XAS\DPB2\500C_100%O2\Electrochem\OCV RampDownT.cor
    Data Append:              0
    Comment Lines:            0
    Total Time:               50
    Time Units:               2
    Time Marker:              -1
    Measure Rate Type:        1
    Measure Rate #1:          2000
    Measure Rate #2:          5
    Measure Rate #3:          0.1
    Measure Rate #4:          2
    Use Threshold:            0
    Threshold E_Min:          -15
    Threshold E_Max:          15
    Threshold T_Min:          0
    Threshold T_Max:          100
    Threshold Delta:          5
    Threshold Time:           60
    Axes Type:                0
    Use Custom Pstat:         0
  End Experiment:             Open Circuit	[50 Hour][default]	OCV RampDownT.cor
  Data Points:                435
  E(Volts)	I(A/cm2)	T(Seconds)
End Comments
-1.932807E-03	0.000000E+00	0.000000E+00
-2.344238E-03	0.000000E+00	9.700000E-01
-2.409484E-03	0.000000E+00	1.410000E+00
-2.233704E-03	0.000000E+00	1.850000E+00
-1.015529E-03	0.000000E+00	2.370000E+00
-1.193612E-03	0.000000E+00	2.950000E+00
-1.427728E-03	0.000000E+00	3.780000E+00
-1.174422E-03	0.000000E+00	4.600000E+00
-2.262105E-03	0.000000E+00	5.140000E+00
-2.368801E-03	0.000000E+00	5.570000E+00
-2.410251E-03	0.000000E+00	6.020000E+00
-1.282653E-03	0.000000E+00	6.570000E+00
-2.288971E-03	0.000000E+00	7.070000E+00
-1.202823E-03	0.000000E+00	7.910000E+00
-2.615199E-03	0.000000E+00	8.410000E+00
-1.277280E-03	0.000000E+00	9.140000E+00
-2.220655E-03	0.000000E+00	9.690000E+00
-2.329654E-03	0.000000E+00	1.057000E+01
-2.332724E-03	0.000000E+00	1.102000E+01
-1.298005E-03	0.000000E+00	1.163000E+01
-1.060050E-03	0.000000E+00	1.223000E+01
-2.440955E-03	0.000000E+00	1.272000E+01
-2.450934E-03	0.000000E+00	1.317000E+01
-2.443258E-03	0.000000E+00	1.361000E+01
-2.252894E-03	0.000000E+00	1.407000E+01
-2.089396E-03	0.000000E+00	1.451000E+01
-2.109354E-03	0.000000E+00	1.496000E+01
-2.255964E-03	0.000000E+00	1.539000E+01
-2.354217E-03	0.000000E+00	1.587000E+01
-2.311231E-03	0.000000E+00	1.631000E+01
-2.143128E-03	0.000000E+00	1.676000E+01
-1.184401E-03	0.000000E+00	1.759000E+01
-2.472427E-03	0.000000E+00	1.812000E+01
-2.417159E-03	0.000000E+00	1.856000E+01
-2.302020E-03	0.000000E+00	1.901000E+01
-2.082488E-03	0.000000E+00	1.945000E+01
-2.067136E-03	0.000000E+00	1.989000E+01
-1.471481E-03	0.000000E+00	2.114000E+01
-2.384153E-03	0.000000E+00	2.169000E+01
-2.084790E-03	0.000000E+00	2.214000E+01
-2.080953E-03	0.000000E+00	2.257000E+01
-2.180740E-03	0.000000E+00	2.302000E+01
-2.316604E-03	0.000000E+00	2.347000E+01
-2.371104E-03	0.000000E+00	2.392000E+01
-2.233704E-03	0.000000E+00	2.436000E+01
-2.076347E-03	0.000000E+00	2.481000E+01
-1.264230E-03	0.000000E+00	2.534000E+01
-2.006496E-03	0.000000E+00	2.596000E+01
-2.435582E-03	0.000000E+00	2.649000E+01
-2.292809E-03	0.000000E+00	2.694000E+01
-1.225083E-03	0.000000E+00	2.761000E+01
-2.288971E-03	0.000000E+00	2.811000E+01
-1.644190E-03	0.000000E+00	2.889000E+01
-1.300307E-03	0.000000E+00	2.950000E+01
-1.275744E-03	0.000000E+00	3.002000E+01
-1.503720E-03	0.000000E+00	3.126000E+01
-1.280350E-03	0.000000E+00	3.199000E+01
-2.207606E-03	0.000000E+00	3.252000E+01
-2.343470E-03	0.000000E+00	3.297000E+01
-1.414679E-03	0.000000E+00	3.351000E+01
-2.528461E-03	0.000000E+00	3.401000E+01
-2.186881E-03	0.000000E+00	3.444000E+01
-1.276512E-03	0.000000E+00	3.529000E+01
-1.753957E-03	0.000000E+00	3.593000E+01
-2.572214E-03	0.000000E+00	3.643000E+01
-2.282063E-03	0.000000E+00	3.688000E+01
-2.197627E-03	0.000000E+00	3.732000E+01
-2.232936E-03	0.000000E+00	3.777000E+01
-2.535369E-03	0.000000E+00	3.821000E+01
-2.278992E-03	0.000000E+00	3.865000E+01
-1.318730E-03	0.000000E+00	3.915000E+01
-2.270549E-03	0.000000E+00	3.969000E+01
-1.492974E-03	0.000000E+00	4.087000E+01
-2.376477E-03	0.000000E+00	4.137000E+01
-1.311821E-03	0.000000E+00	4.192000E+01
-2.509271E-03	0.000000E+00	4.241000E+01
-2.512342E-03	0.000000E+00	4.286000E+01
-2.176134E-03	0.000000E+00	4.330000E+01
-2.123171E-03	0.000000E+00	4.375000E+01
-1.368623E-03	0.000000E+00	4.423000E+01
-2.616735E-03	0.000000E+00	4.472000E+01
-2.426371E-03	0.000000E+00	4.517000E+01
-2.262105E-03	0.000000E+00	4.561000E+01
-1.344060E-03	0.000000E+00	4.619000E+01
-2.376477E-03	0.000000E+00	4.668000E+01
-2.405646E-03	0.000000E+00	4.713000E+01
-1.385511E-03	0.000000E+00	4.796000E+01
-1.317962E-03	0.000000E+00	4.869000E+01
-2.671234E-03	0.000000E+00	4.922000E+01
-2.354984E-03	0.000000E+00	4.966000E+01
-2.304323E-03	0.000000E+00	5.064000E+01
-1.519840E-03	0.000000E+00	5.133000E+01
-1.494509E-03	0.000000E+00	5.218000E+01
-2.169994E-03	0.000000E+00	5.268000E+01
-2.199930E-03	0.000000E+00	5.313000E+01
-1.658775E-03	0.000000E+00	5.387000E+01
-1.291096E-03	0.000000E+00	5.472000E+01
-1.279582E-03	0.000000E+00	5.534000E+01
-1.512164E-03	0.000000E+00	5.587000E+01
-2.781768E-03	0.000000E+00	5.637000E+01
-2.441723E-03	0.000000E+00	5.682000E+01
-2.256732E-03	0.000000E+00	5.725000E+01
-2.193022E-03	0.000000E+00	5.769000E+01
-1.443080E-03	0.000000E+00	5.846000E+01
-2.542278E-03	0.000000E+00	5.896000E+01
-1.136810E-03	0.000000E+00	5.961000E+01
-2.454772E-03	0.000000E+00	6.011000E+01
-1.343293E-03	0.000000E+00	6.134000E+01
-2.308161E-03	0.000000E+00	6.189000E+01
-2.289739E-03	0.000000E+00	6.233000E+01
-2.346541E-03	0.000000E+00	6.278000E+01
-2.520017E-03	0.000000E+00	6.322000E+01
-1.175957E-03	0.000000E+00	6.405000E+01
-1.211266E-03	0.000000E+00	6.469000E+01
-2.533834E-03	0.000000E+00	6.523000E+01
-2.588334E-03	0.000000E+00	6.567000E+01
-1.288026E-03	0.000000E+00	6.649000E+01
-1.246576E-03	0.000000E+00	6.735000E+01
-2.603685E-03	0.000000E+00	6.790000E+01
-2.551489E-03	0.000000E+00	6.833000E+01
-1.439242E-03	0.000000E+00	6.916000E+01
-2.293577E-03	0.000000E+00	6.970000E+01
-1.479157E-03	0.000000E+00	7.069000E+01
-2.615967E-03	0.000000E+00	7.123000E+01
-2.479335E-03	0.000000E+00	7.167000E+01
-1.413912E-03	0.000000E+00	7.218000E+01
-2.320443E-03	0.000000E+00	7.267000E+01
-2.226796E-03	0.000000E+00	7.312000E+01
-2.401808E-03	0.000000E+00	7.357000E+01
-1.459967E-03	0.000000E+00	7.418000E+01
-2.565306E-03	0.000000E+00	7.468000E+01
-2.216049E-03	0.000000E+00	7.513000E+01
-2.156944E-03	0.000000E+00	7.557000E+01
-2.130846E-03	0.000000E+00	7.602000E+01
-1.370926E-03	0.000000E+00	7.660000E+01
-2.568376E-03	0.000000E+00	7.715000E+01
-2.484708E-03	0.000000E+00	7.758000E+01
-2.327351E-03	0.000000E+00	7.804000E+01
-2.209909E-03	0.000000E+00	7.848000E+01
-2.139290E-03	0.000000E+00	7.893000E+01
-1.155232E-03	0.000000E+00	7.963000E+01
-1.525213E-03	0.000000E+00	8.021000E+01
-2.652812E-03	0.000000E+00	8.118000E+01
-2.427138E-03	0.000000E+00	8.162000E+01
-2.252894E-03	0.000000E+00	8.207000E+01
-1.325638E-03	0.000000E+00	8.289000E+01
-1.641120E-03	0.000000E+00	8.349000E+01
-2.729571E-03	0.000000E+00	8.403000E+01
-2.456307E-03	0.000000E+00	8.447000E+01
-2.305091E-03	0.000000E+00	8.492000E+01
-2.251359E-03	0.000000E+00	8.535000E+01
-2.350379E-03	0.000000E+00	8.580000E+01
-2.476264E-03	0.000000E+00	8.624000E+01
-2.598312E-03	0.000000E+00	8.668000E+01
-1.463805E-03	0.000000E+00	8.730000E+01
-2.450166E-03	0.000000E+00	8.783000E+01
-1.274977E-03	0.000000E+00	8.840000E+01
-2.609059E-03	0.000000E+00	8.893000E+01
-2.627481E-03	0.000000E+00	8.937000E+01
-2.614432E-03	0.000000E+00	8.982000E+01
-2.315069E-03	0.000000E+00	9.080000E+01
-2.243683E-03	0.000000E+00	9.124000E+01
-1.428496E-03	0.000000E+00	9.178000E+01
-2.745691E-03	0.000000E+00	9.229000E+01
-2.625946E-03	0.000000E+00	9.273000E+01
-2.437117E-03	0.000000E+00	9.318000E+01
-2.216049E-03	0.000000E+00	9.362000E+01
-1.199752E-03	0.000000E+00	9.437000E+01
-2.609059E-03	0.000000E+00	9.487000E+01
-1.628838E-03	0.000000E+00	9.537000E+01
-2.470124E-03	0.000000E+00	9.593000E+01
-1.172119E-03	0.000000E+00	9.667000E+01
-1.357110E-03	0.000000E+00	9.729000E+01
-2.662790E-03	0.000000E+00	9.778000E+01
-1.539797E-03	0.000000E+00	9.829000E+01
-2.516947E-03	0.000000E+00	9.878000E+01
-2.229099E-03	0.000000E+00	9.923000E+01
-1.189006E-03	0.000000E+00	9.978000E+01
-1.661845E-03	0.000000E+00	1.009700E+02
-1.425426E-03	0.000000E+00	1.016700E+02
-2.373406E-03	0.000000E+00	1.021700E+02
-1.301843E-03	0.000000E+00	1.028100E+02
-2.461680E-03	0.000000E+00	1.033300E+02
-2.493919E-03	0.000000E+00	1.037800E+02
-1.632677E-03	0.000000E+00	1.042800E+02
-1.502185E-03	0.000000E+00	1.049400E+02
-2.296647E-03	0.000000E+00	1.054800E+02
-2.256732E-03	0.000000E+00	1.059300E+02
-2.369568E-03	0.000000E+00	1.063700E+02
-1.523678E-03	0.000000E+00	1.071200E+02
-2.480102E-03	0.000000E+00	1.076300E+02
-1.326406E-03	0.000000E+00	1.082900E+02
-2.333491E-03	0.000000E+00	1.087800E+02
-1.434637E-03	0.000000E+00	1.093500E+02
-2.689656E-03	0.000000E+00	1.099000E+02
-2.325048E-03	0.000000E+00	1.107800E+02
-2.222958E-03	0.000000E+00	1.112200E+02
-2.196859E-03	0.000000E+00	1.116600E+02
-1.437707E-03	0.000000E+00	1.124900E+02
-2.662790E-03	0.000000E+00	1.130500E+02
-2.439420E-03	0.000000E+00	1.134900E+02
-2.230634E-03	0.000000E+00	1.139400E+02
-1.149091E-03	0.000000E+00	1.144800E+02
-1.532889E-03	0.000000E+00	1.151700E+02
-2.701937E-03	0.000000E+00	1.156800E+02
-2.502362E-03	0.000000E+00	1.161300E+02
-2.296647E-03	0.000000E+00	1.165700E+02
-1.265766E-03	0.000000E+00	1.171400E+02
-2.443258E-03	0.000000E+00	1.176300E+02
-2.559932E-03	0.000000E+00	1.180800E+02
-2.491616E-03	0.000000E+00	1.185200E+02
-2.313534E-03	0.000000E+00	1.189700E+02
-1.317962E-03	0.000000E+00	1.194800E+02
-2.390294E-03	0.000000E+00	1.199900E+02
-2.529996E-03	0.000000E+00	1.208800E+02
-2.482405E-03	0.000000E+00	1.213100E+02
-2.300485E-03	0.000000E+00	1.217600E+02
-2.150036E-03	0.000000E+00	1.222000E+02
-2.179972E-03	0.000000E+00	1.226300E+02
-2.282830E-03	0.000000E+00	1.230800E+02
-2.482405E-03	0.000000E+00	1.235200E+02
-1.622698E-03	0.000000E+00	1.242600E+02
-2.372639E-03	0.000000E+00	1.247800E+02
-1.279582E-03	0.000000E+00	1.254600E+02
-2.484708E-03	0.000000E+00	1.259600E+02
-1.583550E-03	0.000000E+00	1.267100E+02
-1.457665E-03	0.000000E+00	1.274600E+02
-1.389349E-03	0.000000E+00	1.281000E+02
-2.561467E-03	0.000000E+00	1.285900E+02
-2.615967E-03	0.000000E+00	1.290400E+02
-2.563003E-03	0.000000E+00	1.294800E+02
-2.378012E-03	0.000000E+00	1.299400E+02
-2.252894E-03	0.000000E+00	1.309500E+02
-1.560523E-03	0.000000E+00	1.317300E+02
-1.652634E-03	0.000000E+00	1.325200E+02
-2.474729E-03	0.000000E+00	1.330200E+02
-1.309519E-03	0.000000E+00	1.336500E+02
-2.500060E-03	0.000000E+00	1.342000E+02
-1.576642E-03	0.000000E+00	1.349000E+02
-2.706543E-03	0.000000E+00	1.354400E+02
-1.195914E-03	0.000000E+00	1.362000E+02
-2.556094E-03	0.000000E+00	1.366900E+02
-2.318140E-03	0.000000E+00	1.371400E+02
-2.494687E-03	0.000000E+00	1.375800E+02
-2.547651E-03	0.000000E+00	1.380300E+02
-2.530764E-03	0.000000E+00	1.384600E+02
-2.356519E-03	0.000000E+00	1.389100E+02
-2.221423E-03	0.000000E+00	1.393500E+02
-1.192844E-03	0.000000E+00	1.401300E+02
-2.765648E-03	0.000000E+00	1.410700E+02
-2.619805E-03	0.000000E+00	1.415100E+02
-2.461680E-03	0.000000E+00	1.419500E+02
-2.268246E-03	0.000000E+00	1.423900E+02
-2.274387E-03	0.000000E+00	1.428400E+02
-1.436172E-03	0.000000E+00	1.436600E+02
-1.671056E-03	0.000000E+00	1.444800E+02
-2.789443E-03	0.000000E+00	1.449800E+02
-1.416982E-03	0.000000E+00	1.456300E+02
-2.502362E-03	0.000000E+00	1.461300E+02
-2.343470E-03	0.000000E+00	1.465700E+02
-2.345773E-03	0.000000E+00	1.470200E+02
-2.376477E-03	0.000000E+00	1.474600E+02
-2.547651E-03	0.000000E+00	1.479100E+02
-2.503898E-03	0.000000E+00	1.483400E+02
-2.544580E-03	0.000000E+00	1.488000E+02
-1.303378E-03	0.000000E+00	1.495400E+02
-2.490849E-03	0.000000E+00	1.500400E+02
-1.469178E-03	0.000000E+00	1.510500E+02
-2.663558E-03	0.000000E+00	1.515400E+02
-2.611361E-03	0.000000E+00	1.519900E+02
-1.701760E-03	0.000000E+00	1.527800E+02
-2.774092E-03	0.000000E+00	1.532800E+02
-1.315659E-03	0.000000E+00	1.539600E+02
-1.462270E-03	0.000000E+00	1.546700E+02
-2.583728E-03	0.000000E+00	1.552000E+02
-1.494509E-03	0.000000E+00	1.556800E+02
-1.704831E-03	0.000000E+00	1.564500E+02
-1.828414E-03	0.000000E+00	1.572000E+02
-1.691014E-03	0.000000E+00	1.577900E+02
-2.753367E-03	0.000000E+00	1.583400E+02
-2.549954E-03	0.000000E+00	1.587900E+02
-2.441723E-03	0.000000E+00	1.592300E+02
-2.333492E-03	0.000000E+00	1.596600E+02
-2.510806E-03	0.000000E+00	1.605500E+02
-2.617502E-03	0.000000E+00	1.610000E+02
-2.786373E-03	0.000000E+00	1.614400E+02
-1.722485E-03	0.000000E+00	1.621200E+02
-2.762578E-03	0.000000E+00	1.626600E+02
-2.595242E-03	0.000000E+00	1.631100E+02
-1.389349E-03	0.000000E+00	1.636400E+02
-2.676607E-03	0.000000E+00	1.641400E+02
-2.448631E-03	0.000000E+00	1.645800E+02
-2.505433E-03	0.000000E+00	1.650300E+02
-2.411019E-03	0.000000E+00	1.654700E+02
-2.672769E-03	0.000000E+00	1.659100E+02
-2.612129E-03	0.000000E+00	1.663500E+02
-2.619805E-03	0.000000E+00	1.668000E+02
-1.410074E-03	0.000000E+00	1.676300E+02
-1.353272E-03	0.000000E+00	1.685600E+02
-2.566841E-03	0.000000E+00	1.690900E+02
-1.391651E-03	0.000000E+00	1.699300E+02
-2.428673E-03	0.000000E+00	1.704300E+02
-1.431566E-03	0.000000E+00	1.714000E+02
-2.718057E-03	0.000000E+00	1.719300E+02
-2.766415E-03	0.000000E+00	1.723700E+02
-1.479925E-03	0.000000E+00	1.731200E+02
-2.628248E-03	0.000000E+00	1.736600E+02
-2.615199E-03	0.000000E+00	1.741100E+02
-2.409483E-03	0.000000E+00	1.745400E+02
-2.358055E-03	0.000000E+00	1.750000E+02
-1.447686E-03	0.000000E+00	1.755700E+02
-2.417159E-03	0.000000E+00	1.761000E+02
-1.083845E-03	0.000000E+00	1.766600E+02
-2.475497E-03	0.000000E+00	1.772100E+02
-2.254429E-03	0.000000E+00	1.776500E+02
-1.532889E-03	0.000000E+00	1.782700E+02
-1.714042E-03	0.000000E+00	1.789200E+02
-1.592761E-03	0.000000E+00	1.797500E+02
-1.727091E-03	0.000000E+00	1.806500E+02
-2.821683E-03	0.000000E+00	1.815800E+02
-2.547651E-03	0.000000E+00	1.820300E+02
-2.440955E-03	0.000000E+00	1.824700E+02
-1.459967E-03	0.000000E+00	1.830600E+02
-2.452469E-03	0.000000E+00	1.835500E+02
-2.483173E-03	0.000000E+00	1.840000E+02
-2.411019E-03	0.000000E+00	1.844400E+02
-1.398560E-03	0.000000E+00	1.851000E+02
-1.717112E-03	0.000000E+00	1.856600E+02
-1.688711E-03	0.000000E+00	1.864600E+02
-2.967526E-03	0.000000E+00	1.869900E+02
-1.650331E-03	0.000000E+00	1.878300E+02
-1.588156E-03	0.000000E+00	1.886900E+02
-2.711149E-03	0.000000E+00	1.892000E+02
-2.437885E-03	0.000000E+00	1.896400E+02
-2.545348E-03	0.000000E+00	1.905200E+02
-2.734944E-03	0.000000E+00	1.909700E+02
-2.768718E-03	0.000000E+00	1.914100E+02
-2.784070E-03	0.000000E+00	1.918600E+02
-1.700225E-03	0.000000E+00	1.926600E+02
-2.629784E-03	0.000000E+00	1.932100E+02
-2.450934E-03	0.000000E+00	1.936500E+02
-1.306448E-03	0.000000E+00	1.944100E+02
-2.576052E-03	0.000000E+00	1.949600E+02
-2.627481E-03	0.000000E+00	1.954000E+02
-2.728804E-03	0.000000E+00	1.958500E+02
-2.776395E-03	0.000000E+00	1.962900E+02
-2.701170E-03	0.000000E+00	1.967300E+02
-1.641888E-03	0.000000E+00	1.975200E+02
-2.568376E-03	0.000000E+00	1.980600E+02
-1.534424E-03	0.000000E+00	1.986200E+02
-2.566073E-03	0.000000E+00	1.991600E+02
-1.666451E-03	0.000000E+00	1.997200E+02
-3.017419E-03	0.000000E+00	2.007100E+02
-2.924540E-03	0.000000E+00	2.011600E+02
-2.807098E-03	0.000000E+00	2.015900E+02
-2.550721E-03	0.000000E+00	2.020500E+02
-2.494687E-03	0.000000E+00	2.024900E+02
-1.475319E-03	0.000000E+00	2.032900E+02
-2.681980E-03	0.000000E+00	2.037800E+02
-1.772379E-03	0.000000E+00	2.044200E+02
-3.041982E-03	0.000000E+00	2.049600E+02
-2.839337E-03	0.000000E+00	2.054000E+02
-1.535960E-03	0.000000E+00	2.061100E+02
-2.784070E-03	0.000000E+00	2.066000E+02
-2.511574E-03	0.000000E+00	2.070500E+02
-1.539798E-03	0.000000E+00	2.077700E+02
-1.816132E-03	0.000000E+00	2.085800E+02
-2.066368E-03	0.000000E+00	2.093300E+02
-3.027398E-03	0.000000E+00	2.098300E+02
-2.828591E-03	0.000000E+00	2.108100E+02
-2.652044E-03	0.000000E+00	2.112600E+02
-2.599847E-03	0.000000E+00	2.117000E+02
-2.621340E-03	0.000000E+00	2.121500E+02
-1.663380E-03	0.000000E+00	2.127300E+02
-3.034307E-03	0.000000E+00	2.132800E+02
-1.793872E-03	0.000000E+00	2.138800E+02
-2.851619E-03	0.000000E+00	2.143900E+02
-2.650509E-03	0.000000E+00	2.148400E+02
-2.531531E-03	0.000000E+00	2.152700E+02
-2.610594E-03	0.000000E+00	2.157100E+02
-1.670289E-03	0.000000E+00	2.161900E+02
-1.945856E-03	0.000000E+00	2.170200E+02
-3.104158E-03	0.000000E+00	2.175600E+02
-2.835499E-03	0.000000E+00	2.180100E+02
-1.543636E-03	0.000000E+00	2.187800E+02
-2.776395E-03	0.000000E+00	2.193000E+02
-1.829181E-03	0.000000E+00	2.201400E+02
-3.135629E-03	0.000000E+00	2.210800E+02
-2.843175E-03	0.000000E+00	2.215200E+02
-2.743388E-03	0.000000E+00	2.219700E+02
-2.529996E-03	0.000000E+00	2.224100E+02
-2.542277E-03	0.000000E+00	2.228600E+02
-2.615199E-03	0.000000E+00	2.233000E+02
-1.744746E-03	0.000000E+00	2.237900E+02
-1.930504E-03	0.000000E+00	2.246500E+02
-1.671824E-03	0.000000E+00	2.255500E+02
-2.800190E-03	0.000000E+00	2.260500E+02
-2.676607E-03	0.000000E+00	2.264900E+02
-2.817077E-03	0.000000E+00	2.269400E+02
-2.875414E-03	0.000000E+00	2.273800E+02
-2.940660E-03	0.000000E+00	2.278300E+02
-1.701760E-03	0.000000E+00	2.285700E+02
-1.689479E-03	0.000000E+00	2.292600E+02
-2.891534E-03	0.000000E+00	2.297500E+02
-3.127954E-03	0.000000E+00	2.306900E+02
-1.948926E-03	0.000000E+00	2.312700E+02
-1.907476E-03	0.000000E+00	2.319300E+02
-2.937590E-03	0.000000E+00	2.324300E+02
-1.636515E-03	0.000000E+00	2.331600E+02
-2.015707E-03	0.000000E+00	2.338800E+02
-3.259980E-03	0.000000E+00	2.344000E+02
-3.066546E-03	0.000000E+00	2.348500E+02
-2.862365E-03	0.000000E+00	2.352900E+02
-2.691959E-03	0.000000E+00	2.357300E+02
-2.629016E-03	0.000000E+00	2.361800E+02
-2.656649E-03	0.000000E+00	2.366200E+02
-2.728036E-03	0.000000E+00	2.370600E+02
-1.981165E-03	0.000000E+00	2.379000E+02
-3.168636E-03	0.000000E+00	2.384000E+02
-2.950639E-03	0.000000E+00	2.388500E+02
-2.728036E-03	0.000000E+00	2.392900E+02
-1.640352E-03	0.000000E+00	2.401800E+02
-3.239255E-03	0.000000E+00	2.411700E+02
-2.061763E-03	0.000000E+00	2.417000E+02
-3.117975E-03	0.000000E+00	2.422100E+02
-1.676430E-03	0.000000E+00	2.429500E+02
-2.863901E-03	0.000000E+00	2.434500E+02
-2.804796E-03	0.000000E+00	2.439000E+02
-2.722663E-03	0.000000E+00	2.443400E+02
-2.829358E-03	0.000000E+00	2.447900E+02
-1.883680E-03	0.000000E+00	2.454100E+02
-3.068849E-03	0.000000E+00	2.459700E+02
-2.977505E-03	0.000000E+00	2.464000E+02
-2.832429E-03	0.000000E+00	2.468500E+02
-1.574339E-03	0.000000E+00	2.476500E+02
