CORRW ASCII
  CorrWare for Windows: Version 3.5f
  Open Circuit	[50 Hour][default]	OCV Before1.cor
  Date: 11-06-2019    Time: 08:38:23
   
   
  Open Circuit Potential (V): 0.015562
  Begin Information:          Cell Information
    Surface Area:             1
    Density:                  0
    Weight:                   0
    Polarity:                 0
    PolarityI:                0
    Corrosion Unit Type:      0
    Reference Type:           0
    Reference Potential:      0
    User-Defined Potential:   0
    Stern-Geary:              26
  End Information:            Cell Information
  Begin Pstat:                1287
    Pstat Title:              Instrument #1
    Booster Type:             0
    Booster Name:             None
    Current Range:            0
    Current Limit:            0
    Current LimitType:        0
    Sweep Type:               0
    Use Error Beep:           1
    Auxilary Type:            0
    iR Comp. Type:            0
    iR Ohms:                  0
    iR Time:                  27
    iR Ratio:                 255
    LP Filter Type:           2
    Drift Correction:         1
    Null Correction:          0
    Pstat Bandwidth Type:     2
    Gstat Bandwidth Type:     2
    External Input:           0
    SafetyMinV:               0
    SafetyMaxV:               10
    SafetyMinI:               0
    SafetyMaxI:               4
    SafetyMinQ:               0
    SafetyMaxQ:               1000
    SafetyMinT:               0
    SafetyMaxT:               50
    SafetyChT:                0
    SafetyMinVUse:            0
    SafetyMaxVUse:            0
    SafetyMinIUse:            0
    SafetyMaxIUse:            0
    SafetyMinQUse:            0
    SafetyMaxQUse:            0
    SafetyMinTUse:            0
    SafetyMaxTUse:            0
  End Pstat:                  1287
  Begin Experiment:           Open Circuit	[50 Hour][default]	OCV Before1.cor
    Data File:                Z:\191101_Amezawa\fr_XAS\DPB2\500C_100%O2\Electrochem\OCV Before1.cor
    Data Append:              0
    Comment Lines:            0
    Total Time:               50
    Time Units:               2
    Time Marker:              -1
    Measure Rate Type:        1
    Measure Rate #1:          2000
    Measure Rate #2:          5
    Measure Rate #3:          0.1
    Measure Rate #4:          2
    Use Threshold:            0
    Threshold E_Min:          -15
    Threshold E_Max:          15
    Threshold T_Min:          0
    Threshold T_Max:          100
    Threshold Delta:          5
    Threshold Time:           60
    Axes Type:                0
    Use Custom Pstat:         0
  End Experiment:             Open Circuit	[50 Hour][default]	OCV Before1.cor
  Data Points:                643
  E(Volts)	I(A/cm2)	T(Seconds)
End Comments
-7.054331E-01	0.000000E+00	0.000000E+00
-7.516280E-01	0.000000E+00	9.200000E-01
-7.609708E-01	0.000000E+00	1.810000E+00
-7.637652E-01	0.000000E+00	2.240000E+00
-7.652314E-01	0.000000E+00	2.680000E+00
-7.669741E-01	0.000000E+00	3.130000E+00
-7.685939E-01	0.000000E+00	3.570000E+00
-7.700065E-01	0.000000E+00	4.020000E+00
-7.708356E-01	0.000000E+00	4.460000E+00
-7.713269E-01	0.000000E+00	4.910000E+00
-7.715648E-01	0.000000E+00	5.350000E+00
-7.720562E-01	0.000000E+00	5.800000E+00
-7.728699E-01	0.000000E+00	6.230000E+00
-7.734380E-01	0.000000E+00	6.670000E+00
-7.732922E-01	0.000000E+00	7.120000E+00
-7.729851E-01	0.000000E+00	7.560000E+00
-7.739601E-01	0.000000E+00	8.010000E+00
-7.745512E-01	0.000000E+00	8.450000E+00
-7.752574E-01	0.000000E+00	8.900000E+00
-7.751193E-01	0.000000E+00	9.330000E+00
-7.753035E-01	0.000000E+00	9.790000E+00
-7.752728E-01	0.000000E+00	1.066000E+01
-7.750425E-01	0.000000E+00	1.111000E+01
-7.757334E-01	0.000000E+00	1.155000E+01
-7.770308E-01	0.000000E+00	1.200000E+01
-7.765779E-01	0.000000E+00	1.243000E+01
-7.772765E-01	0.000000E+00	1.288000E+01
-7.777524E-01	0.000000E+00	1.332000E+01
-7.773609E-01	0.000000E+00	1.377000E+01
-7.778445E-01	0.000000E+00	1.421000E+01
-7.763783E-01	0.000000E+00	1.465000E+01
-7.772381E-01	0.000000E+00	1.510000E+01
-7.772611E-01	0.000000E+00	1.554000E+01
-7.776986E-01	0.000000E+00	1.599000E+01
-7.790191E-01	0.000000E+00	1.643000E+01
-7.788579E-01	0.000000E+00	1.688000E+01
-7.796256E-01	0.000000E+00	1.732000E+01
-7.795871E-01	0.000000E+00	1.777000E+01
-7.796179E-01	0.000000E+00	1.820000E+01
-7.793492E-01	0.000000E+00	1.864000E+01
-7.796102E-01	0.000000E+00	1.909000E+01
-7.784280E-01	0.000000E+00	1.953000E+01
-7.796102E-01	0.000000E+00	2.041000E+01
-7.803472E-01	0.000000E+00	2.085000E+01
-7.797945E-01	0.000000E+00	2.129000E+01
-7.803856E-01	0.000000E+00	2.174000E+01
-7.787811E-01	0.000000E+00	2.218000E+01
-7.790728E-01	0.000000E+00	2.262000E+01
-7.801936E-01	0.000000E+00	2.307000E+01
-7.831185E-01	0.000000E+00	2.350000E+01
-7.811379E-01	0.000000E+00	2.395000E+01
-7.817367E-01	0.000000E+00	2.439000E+01
-7.810381E-01	0.000000E+00	2.484000E+01
-7.806466E-01	0.000000E+00	2.528000E+01
-7.808232E-01	0.000000E+00	2.573000E+01
-7.802550E-01	0.000000E+00	2.617000E+01
-7.811302E-01	0.000000E+00	2.660000E+01
-7.815447E-01	0.000000E+00	2.705000E+01
-7.819593E-01	0.000000E+00	2.749000E+01
-7.820745E-01	0.000000E+00	2.794000E+01
-7.817828E-01	0.000000E+00	2.838000E+01
-7.826503E-01	0.000000E+00	2.883000E+01
-7.818365E-01	0.000000E+00	2.927000E+01
-7.822971E-01	0.000000E+00	2.972000E+01
-7.816369E-01	0.000000E+00	3.059000E+01
-7.815294E-01	0.000000E+00	3.104000E+01
-7.824659E-01	0.000000E+00	3.148000E+01
-7.836559E-01	0.000000E+00	3.193000E+01
-7.827423E-01	0.000000E+00	3.237000E+01
-7.811610E-01	0.000000E+00	3.282000E+01
-7.814987E-01	0.000000E+00	3.326000E+01
-7.839707E-01	0.000000E+00	3.371000E+01
-7.832183E-01	0.000000E+00	3.414000E+01
-7.843468E-01	0.000000E+00	3.458000E+01
-7.838478E-01	0.000000E+00	3.503000E+01
-7.820284E-01	0.000000E+00	3.547000E+01
-7.838709E-01	0.000000E+00	3.592000E+01
-7.842163E-01	0.000000E+00	3.636000E+01
-7.839860E-01	0.000000E+00	3.681000E+01
-7.845618E-01	0.000000E+00	3.725000E+01
-7.843621E-01	0.000000E+00	3.770000E+01
-7.841779E-01	0.000000E+00	3.813000E+01
-7.854369E-01	0.000000E+00	3.857000E+01
-7.851605E-01	0.000000E+00	3.902000E+01
-7.850685E-01	0.000000E+00	3.946000E+01
-7.850454E-01	0.000000E+00	3.992000E+01
-7.844850E-01	0.000000E+00	4.083000E+01
-7.843007E-01	0.000000E+00	4.127000E+01
-7.860587E-01	0.000000E+00	4.173000E+01
-7.865270E-01	0.000000E+00	4.217000E+01
-7.869033E-01	0.000000E+00	4.260000E+01
-7.863888E-01	0.000000E+00	4.305000E+01
-7.857056E-01	0.000000E+00	4.349000E+01
-7.861739E-01	0.000000E+00	4.394000E+01
-7.856058E-01	0.000000E+00	4.438000E+01
-7.861355E-01	0.000000E+00	4.483000E+01
-7.859052E-01	0.000000E+00	4.527000E+01
-7.865501E-01	0.000000E+00	4.572000E+01
-7.865040E-01	0.000000E+00	4.616000E+01
-7.867880E-01	0.000000E+00	4.660000E+01
-7.863965E-01	0.000000E+00	4.705000E+01
-7.868265E-01	0.000000E+00	4.748000E+01
-7.861202E-01	0.000000E+00	4.793000E+01
-7.862200E-01	0.000000E+00	4.837000E+01
-7.872334E-01	0.000000E+00	4.882000E+01
-7.867727E-01	0.000000E+00	4.926000E+01
-7.875634E-01	0.000000E+00	4.970000E+01
-7.873561E-01	0.000000E+00	5.058000E+01
-7.871489E-01	0.000000E+00	5.103000E+01
-7.868571E-01	0.000000E+00	5.147000E+01
-7.875327E-01	0.000000E+00	5.192000E+01
-7.870874E-01	0.000000E+00	5.236000E+01
-7.850991E-01	0.000000E+00	5.281000E+01
-7.868956E-01	0.000000E+00	5.325000E+01
-7.871181E-01	0.000000E+00	5.370000E+01
-7.851222E-01	0.000000E+00	5.413000E+01
-7.899970E-01	0.000000E+00	5.457000E+01
-7.887995E-01	0.000000E+00	5.502000E+01
-7.875788E-01	0.000000E+00	5.546000E+01
-7.879780E-01	0.000000E+00	5.591000E+01
-7.881699E-01	0.000000E+00	5.635000E+01
-7.875481E-01	0.000000E+00	5.680000E+01
-7.877630E-01	0.000000E+00	5.723000E+01
-7.873024E-01	0.000000E+00	5.767000E+01
-7.870798E-01	0.000000E+00	5.812000E+01
-7.889836E-01	0.000000E+00	5.856000E+01
-7.888070E-01	0.000000E+00	5.901000E+01
-7.891219E-01	0.000000E+00	5.945000E+01
-7.901582E-01	0.000000E+00	5.990000E+01
-7.886766E-01	0.000000E+00	6.078000E+01
-7.893982E-01	0.000000E+00	6.122000E+01
-7.908337E-01	0.000000E+00	6.166000E+01
-7.885000E-01	0.000000E+00	6.211000E+01
-7.897744E-01	0.000000E+00	6.255000E+01
-7.914786E-01	0.000000E+00	6.300000E+01
-7.883081E-01	0.000000E+00	6.343000E+01
-7.911485E-01	0.000000E+00	6.388000E+01
-7.908722E-01	0.000000E+00	6.432000E+01
-7.881776E-01	0.000000E+00	6.477000E+01
-7.859513E-01	0.000000E+00	6.521000E+01
-7.860281E-01	0.000000E+00	6.565000E+01
-7.878091E-01	0.000000E+00	6.610000E+01
-7.889529E-01	0.000000E+00	6.653000E+01
-7.908260E-01	0.000000E+00	6.698000E+01
-7.917089E-01	0.000000E+00	6.742000E+01
-7.940043E-01	0.000000E+00	6.787000E+01
-7.907954E-01	0.000000E+00	6.831000E+01
-7.882313E-01	0.000000E+00	6.876000E+01
-7.904576E-01	0.000000E+00	6.919000E+01
-7.909873E-01	0.000000E+00	6.963000E+01
-7.918932E-01	0.000000E+00	7.052000E+01
-7.921848E-01	0.000000E+00	7.098000E+01
-7.909028E-01	0.000000E+00	7.142000E+01
-7.902734E-01	0.000000E+00	7.187000E+01
-7.938046E-01	0.000000E+00	7.230000E+01
-7.931905E-01	0.000000E+00	7.275000E+01
-7.931752E-01	0.000000E+00	7.319000E+01
-7.925534E-01	0.000000E+00	7.363000E+01
-7.920697E-01	0.000000E+00	7.408000E+01
-7.925841E-01	0.000000E+00	7.452000E+01
-7.923384E-01	0.000000E+00	7.497000E+01
-7.917243E-01	0.000000E+00	7.540000E+01
-7.921542E-01	0.000000E+00	7.585000E+01
-7.926455E-01	0.000000E+00	7.629000E+01
-7.934822E-01	0.000000E+00	7.674000E+01
-7.934132E-01	0.000000E+00	7.718000E+01
-7.934438E-01	0.000000E+00	7.761000E+01
-7.929526E-01	0.000000E+00	7.806000E+01
-7.937279E-01	0.000000E+00	7.850000E+01
-7.929295E-01	0.000000E+00	7.895000E+01
-7.929449E-01	0.000000E+00	7.939000E+01
-7.932981E-01	0.000000E+00	7.984000E+01
-7.938431E-01	0.000000E+00	8.073000E+01
-7.933748E-01	0.000000E+00	8.116000E+01
-7.928911E-01	0.000000E+00	8.160000E+01
-7.932981E-01	0.000000E+00	8.205000E+01
-7.928835E-01	0.000000E+00	8.249000E+01
-7.936512E-01	0.000000E+00	8.294000E+01
-7.941732E-01	0.000000E+00	8.338000E+01
-7.950330E-01	0.000000E+00	8.383000E+01
-7.947566E-01	0.000000E+00	8.427000E+01
-7.957776E-01	0.000000E+00	8.472000E+01
-7.964686E-01	0.000000E+00	8.516000E+01
-7.973591E-01	0.000000E+00	8.560000E+01
-7.950790E-01	0.000000E+00	8.605000E+01
-7.952480E-01	0.000000E+00	8.649000E+01
-7.948027E-01	0.000000E+00	8.694000E+01
-7.955473E-01	0.000000E+00	8.738000E+01
-7.953171E-01	0.000000E+00	8.783000E+01
-7.950637E-01	0.000000E+00	8.826000E+01
-7.950713E-01	0.000000E+00	8.871000E+01
-7.948871E-01	0.000000E+00	8.915000E+01
-7.951097E-01	0.000000E+00	8.959000E+01
-7.948257E-01	0.000000E+00	9.048000E+01
-7.946261E-01	0.000000E+00	9.093000E+01
-7.945417E-01	0.000000E+00	9.136000E+01
-7.936819E-01	0.000000E+00	9.181000E+01
-7.938277E-01	0.000000E+00	9.225000E+01
-7.951021E-01	0.000000E+00	9.270000E+01
-7.923844E-01	0.000000E+00	9.314000E+01
-7.771844E-01	0.000000E+00	9.358000E+01
-6.395692E-01	0.000000E+00	9.403000E+01
-3.836771E-01	0.000000E+00	9.446000E+01
-4.248172E-01	0.000000E+00	9.491000E+01
-5.492435E-01	0.000000E+00	9.535000E+01
-7.066802E-01	0.000000E+00	9.580000E+01
-7.309237E-01	0.000000E+00	9.624000E+01
-7.426078E-01	0.000000E+00	9.668000E+01
-7.449953E-01	0.000000E+00	9.713000E+01
-7.428381E-01	0.000000E+00	9.757000E+01
-7.569788E-01	0.000000E+00	9.801000E+01
-7.642335E-01	0.000000E+00	9.845000E+01
-7.681180E-01	0.000000E+00	9.890000E+01
-7.712961E-01	0.000000E+00	9.934000E+01
-7.728316E-01	0.000000E+00	9.979000E+01
-7.653313E-01	0.000000E+00	1.006600E+02
-7.625983E-01	0.000000E+00	1.011100E+02
-7.705362E-01	0.000000E+00	1.015400E+02
-7.741980E-01	0.000000E+00	1.019900E+02
-7.760097E-01	0.000000E+00	1.024400E+02
-7.780287E-01	0.000000E+00	1.028900E+02
-6.381644E-01	0.000000E+00	1.033300E+02
-4.185683E-01	0.000000E+00	1.037800E+02
-3.954994E-01	0.000000E+00	1.042200E+02
-3.800997E-01	0.000000E+00	1.046600E+02
-3.480565E-01	0.000000E+00	1.051000E+02
-3.577524E-01	0.000000E+00	1.055400E+02
-2.909254E-01	0.000000E+00	1.059900E+02
-3.013813E-01	0.000000E+00	1.064300E+02
-4.365858E-01	0.000000E+00	1.068800E+02
-4.002130E-01	0.000000E+00	1.073200E+02
-3.769828E-01	0.000000E+00	1.077700E+02
-5.490362E-01	0.000000E+00	1.082100E+02
-6.388016E-01	0.000000E+00	1.086400E+02
-6.617630E-01	0.000000E+00	1.090900E+02
-5.937922E-01	0.000000E+00	1.095300E+02
-3.796928E-01	0.000000E+00	1.104200E+02
-3.793243E-01	0.000000E+00	1.108700E+02
-3.664809E-01	0.000000E+00	1.113100E+02
-3.397655E-01	0.000000E+00	1.117600E+02
-3.340002E-01	0.000000E+00	1.122000E+02
-3.196752E-01	0.000000E+00	1.126400E+02
-3.233371E-01	0.000000E+00	1.130900E+02
-3.253791E-01	0.000000E+00	1.135300E+02
-3.253484E-01	0.000000E+00	1.139800E+02
-3.226078E-01	0.000000E+00	1.144200E+02
-3.282196E-01	0.000000E+00	1.148600E+02
-3.364338E-01	0.000000E+00	1.153000E+02
-3.383607E-01	0.000000E+00	1.157500E+02
-3.726071E-01	0.000000E+00	1.161900E+02
-5.749532E-01	0.000000E+00	1.166300E+02
-5.197107E-01	0.000000E+00	1.170800E+02
-5.999874E-01	0.000000E+00	1.175200E+02
-6.326370E-01	0.000000E+00	1.179700E+02
-6.457337E-01	0.000000E+00	1.184000E+02
-6.559362E-01	0.000000E+00	1.188500E+02
-6.650103E-01	0.000000E+00	1.192900E+02
-6.717966E-01	0.000000E+00	1.197400E+02
-6.844173E-01	0.000000E+00	1.206400E+02
-6.889313E-01	0.000000E+00	1.210900E+02
-6.935297E-01	0.000000E+00	1.215300E+02
-6.975985E-01	0.000000E+00	1.219800E+02
-7.011298E-01	0.000000E+00	1.224200E+02
-7.046151E-01	0.000000E+00	1.228700E+02
-7.031105E-01	0.000000E+00	1.233000E+02
-6.976829E-01	0.000000E+00	1.237500E+02
-6.999860E-01	0.000000E+00	1.241900E+02
-7.123150E-01	0.000000E+00	1.246300E+02
-5.573963E-01	0.000000E+00	1.250800E+02
3.336394E-01	0.000000E+00	1.255200E+02
-9.569184E-03	0.000000E+00	1.259600E+02
3.491006E-01	0.000000E+00	1.264000E+02
3.440108E-01	0.000000E+00	1.268500E+02
3.425599E-01	0.000000E+00	1.272900E+02
3.471890E-01	0.000000E+00	1.277400E+02
3.519563E-01	0.000000E+00	1.281800E+02
3.557794E-01	0.000000E+00	1.286200E+02
3.598865E-01	0.000000E+00	1.290700E+02
3.626271E-01	0.000000E+00	1.295100E+02
3.673714E-01	0.000000E+00	1.303900E+02
3.691985E-01	0.000000E+00	1.308400E+02
3.642239E-01	0.000000E+00	1.312800E+02
-2.181029E-01	0.000000E+00	1.317400E+02
-4.311199E-01	0.000000E+00	1.321800E+02
-4.786780E-01	0.000000E+00	1.326100E+02
-5.106597E-01	0.000000E+00	1.330600E+02
-5.332373E-01	0.000000E+00	1.335000E+02
-5.497655E-01	0.000000E+00	1.339500E+02
-5.798664E-01	0.000000E+00	1.343900E+02
-9.629561E-01	0.000000E+00	1.348400E+02
-6.145734E-01	0.000000E+00	1.352800E+02
-1.002077E+00	0.000000E+00	1.357300E+02
-2.314123E+00	0.000000E+00	1.362600E+02
-8.324038E-01	0.000000E+00	1.371800E+02
-8.954614E-01	0.000000E+00	1.376900E+02
-8.306612E-01	0.000000E+00	1.382500E+02
-2.496240E-01	0.000000E+00	1.387000E+02
4.627178E-01	0.000000E+00	1.391400E+02
9.169593E-02	0.000000E+00	1.399800E+02
1.529742E-02	0.000000E+00	1.409600E+02
1.534194E-02	0.000000E+00	1.418500E+02
1.556531E-02	0.000000E+00	1.423000E+02
1.720106E-02	0.000000E+00	1.427500E+02
1.631986E-02	0.000000E+00	1.431900E+02
1.628531E-02	0.000000E+00	1.436300E+02
1.268145E-02	0.000000E+00	1.440800E+02
1.436632E-02	0.000000E+00	1.445100E+02
1.533426E-02	0.000000E+00	1.449600E+02
1.506176E-02	0.000000E+00	1.454000E+02
1.523064E-02	0.000000E+00	1.458500E+02
1.467336E-02	0.000000E+00	1.462900E+02
1.449067E-02	0.000000E+00	1.467400E+02
1.538109E-02	0.000000E+00	1.471800E+02
1.566817E-02	0.000000E+00	1.476200E+02
1.514774E-02	0.000000E+00	1.480600E+02
1.468411E-02	0.000000E+00	1.485000E+02
1.434560E-02	0.000000E+00	1.489500E+02
1.381596E-02	0.000000E+00	1.493900E+02
1.451524E-02	0.000000E+00	1.498400E+02
1.500343E-02	0.000000E+00	1.507300E+02
1.571422E-02	0.000000E+00	1.511600E+02
1.354193E-02	0.000000E+00	1.516000E+02
1.538032E-02	0.000000E+00	1.520500E+02
1.510245E-02	0.000000E+00	1.524900E+02
1.495660E-02	0.000000E+00	1.529400E+02
1.458202E-02	0.000000E+00	1.533800E+02
1.509093E-02	0.000000E+00	1.538300E+02
1.500573E-02	0.000000E+00	1.542700E+02
1.489827E-02	0.000000E+00	1.547100E+02
1.526134E-02	0.000000E+00	1.551500E+02
1.549392E-02	0.000000E+00	1.555900E+02
1.823731E-02	0.000000E+00	1.560400E+02
1.692626E-02	0.000000E+00	1.564800E+02
1.701223E-02	0.000000E+00	1.569400E+02
1.616020E-02	0.000000E+00	1.573800E+02
1.587005E-02	0.000000E+00	1.578300E+02
1.524292E-02	0.000000E+00	1.582600E+02
1.537187E-02	0.000000E+00	1.587100E+02
1.569043E-02	0.000000E+00	1.591500E+02
1.608727E-02	0.000000E+00	1.595900E+02
1.673973E-02	0.000000E+00	1.604800E+02
1.648796E-02	0.000000E+00	1.609300E+02
1.653478E-02	0.000000E+00	1.613600E+02
1.673973E-02	0.000000E+00	1.618100E+02
1.607116E-02	0.000000E+00	1.622500E+02
1.611951E-02	0.000000E+00	1.627000E+02
1.613103E-02	0.000000E+00	1.631400E+02
1.636898E-02	0.000000E+00	1.635700E+02
1.630988E-02	0.000000E+00	1.640200E+02
1.595448E-02	0.000000E+00	1.644600E+02
1.600668E-02	0.000000E+00	1.649100E+02
1.631371E-02	0.000000E+00	1.653500E+02
1.596599E-02	0.000000E+00	1.658000E+02
1.606578E-02	0.000000E+00	1.662400E+02
1.601435E-02	0.000000E+00	1.666800E+02
1.636821E-02	0.000000E+00	1.671300E+02
1.635823E-02	0.000000E+00	1.675700E+02
1.601359E-02	0.000000E+00	1.680100E+02
1.616787E-02	0.000000E+00	1.684500E+02
1.629990E-02	0.000000E+00	1.689000E+02
1.643269E-02	0.000000E+00	1.693400E+02
1.653478E-02	0.000000E+00	1.697900E+02
1.615022E-02	0.000000E+00	1.706600E+02
1.597367E-02	0.000000E+00	1.711100E+02
1.570655E-02	0.000000E+00	1.715500E+02
1.587542E-02	0.000000E+00	1.720000E+02
1.611875E-02	0.000000E+00	1.724400E+02
1.656932E-02	0.000000E+00	1.728900E+02
1.640813E-02	0.000000E+00	1.733200E+02
1.628301E-02	0.000000E+00	1.737700E+02
1.616710E-02	0.000000E+00	1.742100E+02
1.645188E-02	0.000000E+00	1.746500E+02
1.638587E-02	0.000000E+00	1.751000E+02
1.619858E-02	0.000000E+00	1.755400E+02
1.610339E-02	0.000000E+00	1.759900E+02
1.622084E-02	0.000000E+00	1.764300E+02
1.645649E-02	0.000000E+00	1.768800E+02
1.703065E-02	0.000000E+00	1.773200E+02
1.667218E-02	0.000000E+00	1.777600E+02
1.630681E-02	0.000000E+00	1.782000E+02
1.640122E-02	0.000000E+00	1.786400E+02
1.569887E-02	0.000000E+00	1.790900E+02
1.586314E-02	0.000000E+00	1.795300E+02
1.558373E-02	0.000000E+00	1.804100E+02
1.558603E-02	0.000000E+00	1.808600E+02
1.600975E-02	0.000000E+00	1.813000E+02
1.545324E-02	0.000000E+00	1.817500E+02
1.543559E-02	0.000000E+00	1.821900E+02
1.583320E-02	0.000000E+00	1.826200E+02
1.579482E-02	0.000000E+00	1.830700E+02
1.566203E-02	0.000000E+00	1.835100E+02
1.568505E-02	0.000000E+00	1.839600E+02
1.599209E-02	0.000000E+00	1.844000E+02
1.596830E-02	0.000000E+00	1.848500E+02
1.610339E-02	0.000000E+00	1.852900E+02
1.582629E-02	0.000000E+00	1.857400E+02
1.635286E-02	0.000000E+00	1.861700E+02
1.613947E-02	0.000000E+00	1.866100E+02
1.616941E-02	0.000000E+00	1.870600E+02
1.684873E-02	0.000000E+00	1.875000E+02
1.680037E-02	0.000000E+00	1.879500E+02
1.578331E-02	0.000000E+00	1.883900E+02
1.562365E-02	0.000000E+00	1.888400E+02
1.615559E-02	0.000000E+00	1.892800E+02
1.545171E-02	0.000000E+00	1.897200E+02
1.614331E-02	0.000000E+00	1.906000E+02
1.605120E-02	0.000000E+00	1.910500E+02
1.568045E-02	0.000000E+00	1.914900E+02
1.605273E-02	0.000000E+00	1.919400E+02
1.555533E-02	0.000000E+00	1.923800E+02
1.585623E-02	0.000000E+00	1.928200E+02
1.602894E-02	0.000000E+00	1.932600E+02
1.568582E-02	0.000000E+00	1.937100E+02
1.573341E-02	0.000000E+00	1.941500E+02
1.614024E-02	0.000000E+00	1.945900E+02
1.574492E-02	0.000000E+00	1.950400E+02
1.580173E-02	0.000000E+00	1.954800E+02
1.640890E-02	0.000000E+00	1.959200E+02
1.560292E-02	0.000000E+00	1.963600E+02
1.580710E-02	0.000000E+00	1.968100E+02
1.679730E-02	0.000000E+00	1.972500E+02
1.672361E-02	0.000000E+00	1.977000E+02
1.631909E-02	0.000000E+00	1.981400E+02
1.614484E-02	0.000000E+00	1.985800E+02
1.550544E-02	0.000000E+00	1.990200E+02
1.585392E-02	0.000000E+00	1.994700E+02
1.645572E-02	0.000000E+00	1.999100E+02
1.605964E-02	0.000000E+00	2.008200E+02
1.613026E-02	0.000000E+00	2.012700E+02
1.604122E-02	0.000000E+00	2.017100E+02
1.616864E-02	0.000000E+00	2.021500E+02
1.599823E-02	0.000000E+00	2.025900E+02
1.589845E-02	0.000000E+00	2.030400E+02
1.695082E-02	0.000000E+00	2.034800E+02
1.701376E-02	0.000000E+00	2.039200E+02
1.667755E-02	0.000000E+00	2.043600E+02
1.636591E-02	0.000000E+00	2.048100E+02
1.548548E-02	0.000000E+00	2.052500E+02
1.514620E-02	0.000000E+00	2.057000E+02
1.590382E-02	0.000000E+00	2.061400E+02
1.680421E-02	0.000000E+00	2.065800E+02
1.653248E-02	0.000000E+00	2.070200E+02
1.626229E-02	0.000000E+00	2.074600E+02
1.630297E-02	0.000000E+00	2.079100E+02
1.571653E-02	0.000000E+00	2.083500E+02
1.602510E-02	0.000000E+00	2.088000E+02
1.584471E-02	0.000000E+00	2.092400E+02
1.594987E-02	0.000000E+00	2.096800E+02
1.583166E-02	0.000000E+00	2.105700E+02
1.629452E-02	0.000000E+00	2.110100E+02
1.659235E-02	0.000000E+00	2.114500E+02
1.614484E-02	0.000000E+00	2.119000E+02
1.582399E-02	0.000000E+00	2.123400E+02
1.585623E-02	0.000000E+00	2.127900E+02
1.627303E-02	0.000000E+00	2.132300E+02
1.599977E-02	0.000000E+00	2.136700E+02
1.602510E-02	0.000000E+00	2.141200E+02
1.603508E-02	0.000000E+00	2.145500E+02
1.515081E-02	0.000000E+00	2.150000E+02
1.488829E-02	0.000000E+00	2.154400E+02
1.549239E-02	0.000000E+00	2.158900E+02
1.534961E-02	0.000000E+00	2.163300E+02
1.545938E-02	0.000000E+00	2.167800E+02
1.572267E-02	0.000000E+00	2.172200E+02
1.531968E-02	0.000000E+00	2.176500E+02
1.582322E-02	0.000000E+00	2.181000E+02
1.619858E-02	0.000000E+00	2.185400E+02
1.553921E-02	0.000000E+00	2.189900E+02
1.564283E-02	0.000000E+00	2.194300E+02
1.587772E-02	0.000000E+00	2.198700E+02
1.590228E-02	0.000000E+00	2.207700E+02
1.607960E-02	0.000000E+00	2.212100E+02
1.596062E-02	0.000000E+00	2.216500E+02
1.631909E-02	0.000000E+00	2.221000E+02
1.650024E-02	0.000000E+00	2.225400E+02
1.644497E-02	0.000000E+00	2.229900E+02
1.626459E-02	0.000000E+00	2.234200E+02
1.619013E-02	0.000000E+00	2.238700E+02
1.604122E-02	0.000000E+00	2.243100E+02
1.623005E-02	0.000000E+00	2.247600E+02
1.561597E-02	0.000000E+00	2.252000E+02
1.545554E-02	0.000000E+00	2.256400E+02
1.607192E-02	0.000000E+00	2.260900E+02
1.649563E-02	0.000000E+00	2.265200E+02
1.599209E-02	0.000000E+00	2.269700E+02
1.607883E-02	0.000000E+00	2.274100E+02
1.592454E-02	0.000000E+00	2.278600E+02
1.606348E-02	0.000000E+00	2.283000E+02
1.630527E-02	0.000000E+00	2.287500E+02
1.581324E-02	0.000000E+00	2.291900E+02
1.618783E-02	0.000000E+00	2.296300E+02
1.629760E-02	0.000000E+00	2.305100E+02
1.593376E-02	0.000000E+00	2.309600E+02
1.573265E-02	0.000000E+00	2.314000E+02
1.566970E-02	0.000000E+00	2.318500E+02
1.563209E-02	0.000000E+00	2.322900E+02
1.600744E-02	0.000000E+00	2.327400E+02
1.657470E-02	0.000000E+00	2.331800E+02
1.680651E-02	0.000000E+00	2.336200E+02
1.659082E-02	0.000000E+00	2.340700E+02
1.699611E-02	0.000000E+00	2.345100E+02
1.709589E-02	0.000000E+00	2.349600E+02
1.677581E-02	0.000000E+00	2.354000E+02
1.683798E-02	0.000000E+00	2.358500E+02
1.567814E-02	0.000000E+00	2.362800E+02
1.515158E-02	0.000000E+00	2.367300E+02
1.573341E-02	0.000000E+00	2.371700E+02
1.629683E-02	0.000000E+00	2.376100E+02
1.584932E-02	0.000000E+00	2.380600E+02
1.574339E-02	0.000000E+00	2.385000E+02
1.527900E-02	0.000000E+00	2.389500E+02
1.558680E-02	0.000000E+00	2.393800E+02
1.629145E-02	0.000000E+00	2.398300E+02
1.558296E-02	0.000000E+00	2.407100E+02
1.567891E-02	0.000000E+00	2.411500E+02
1.520300E-02	0.000000E+00	2.415900E+02
1.514313E-02	0.000000E+00	2.420400E+02
1.526748E-02	0.000000E+00	2.424800E+02
1.553844E-02	0.000000E+00	2.429300E+02
1.654169E-02	0.000000E+00	2.433700E+02
1.653248E-02	0.000000E+00	2.438200E+02
1.562595E-02	0.000000E+00	2.442600E+02
1.567508E-02	0.000000E+00	2.447100E+02
1.550927E-02	0.000000E+00	2.451500E+02
1.559141E-02	0.000000E+00	2.455800E+02
1.618936E-02	0.000000E+00	2.460300E+02
1.618015E-02	0.000000E+00	2.464700E+02
1.614868E-02	0.000000E+00	2.469200E+02
1.633214E-02	0.000000E+00	2.473600E+02
1.657777E-02	0.000000E+00	2.478100E+02
1.693470E-02	0.000000E+00	2.482500E+02
1.634672E-02	0.000000E+00	2.486900E+02
1.600591E-02	0.000000E+00	2.491400E+02
1.603124E-02	0.000000E+00	2.495700E+02
1.600821E-02	0.000000E+00	2.504600E+02
1.602356E-02	0.000000E+00	2.509100E+02
1.582552E-02	0.000000E+00	2.513500E+02
1.613717E-02	0.000000E+00	2.518000E+02
1.676506E-02	0.000000E+00	2.522400E+02
1.645879E-02	0.000000E+00	2.526800E+02
1.676199E-02	0.000000E+00	2.531300E+02
1.683722E-02	0.000000E+00	2.535600E+02
1.651866E-02	0.000000E+00	2.540100E+02
1.573265E-02	0.000000E+00	2.544500E+02
1.531584E-02	0.000000E+00	2.549000E+02
1.564668E-02	0.000000E+00	2.553400E+02
1.661078E-02	0.000000E+00	2.557900E+02
1.605657E-02	0.000000E+00	2.562300E+02
1.590535E-02	0.000000E+00	2.566700E+02
1.606501E-02	0.000000E+00	2.571200E+02
1.573034E-02	0.000000E+00	2.575600E+02
1.544480E-02	0.000000E+00	2.580100E+02
1.594297E-02	0.000000E+00	2.584500E+02
1.630757E-02	0.000000E+00	2.589000E+02
1.606885E-02	0.000000E+00	2.593400E+02
1.558527E-02	0.000000E+00	2.597900E+02
1.562441E-02	0.000000E+00	2.606600E+02
1.566279E-02	0.000000E+00	2.611100E+02
1.638817E-02	0.000000E+00	2.615500E+02
1.578945E-02	0.000000E+00	2.620000E+02
1.634442E-02	0.000000E+00	2.624400E+02
1.619704E-02	0.000000E+00	2.628900E+02
1.638894E-02	0.000000E+00	2.633300E+02
1.639969E-02	0.000000E+00	2.637800E+02
1.648719E-02	0.000000E+00	2.642100E+02
1.599440E-02	0.000000E+00	2.646500E+02
1.510322E-02	0.000000E+00	2.651000E+02
1.634672E-02	0.000000E+00	2.655400E+02
1.597521E-02	0.000000E+00	2.659900E+02
1.605043E-02	0.000000E+00	2.664300E+02
1.535959E-02	0.000000E+00	2.668800E+02
1.257476E-02	0.000000E+00	2.673100E+02
1.593069E-02	0.000000E+00	2.677700E+02
1.760328E-02	0.000000E+00	2.682100E+02
1.724327E-02	0.000000E+00	2.686500E+02
1.699227E-02	0.000000E+00	2.691000E+02
1.616634E-02	0.000000E+00	2.695400E+02
1.520838E-02	0.000000E+00	2.704200E+02
1.415984E-02	0.000000E+00	2.708700E+02
1.539260E-02	0.000000E+00	2.713100E+02
1.565128E-02	0.000000E+00	2.717600E+02
1.533887E-02	0.000000E+00	2.722000E+02
1.484684E-02	0.000000E+00	2.726400E+02
1.469639E-02	0.000000E+00	2.730800E+02
1.381519E-02	0.000000E+00	2.735200E+02
1.388888E-02	0.000000E+00	2.739700E+02
1.562979E-02	0.000000E+00	2.744100E+02
1.511013E-02	0.000000E+00	2.748600E+02
1.459967E-02	0.000000E+00	2.753000E+02
1.425425E-02	0.000000E+00	2.757500E+02
1.453673E-02	0.000000E+00	2.761900E+02
1.474859E-02	0.000000E+00	2.766200E+02
1.564207E-02	0.000000E+00	2.770700E+02
1.587158E-02	0.000000E+00	2.775100E+02
1.532121E-02	0.000000E+00	2.779600E+02
1.421280E-02	0.000000E+00	2.784000E+02
1.421895E-02	0.000000E+00	2.788500E+02
1.528283E-02	0.000000E+00	2.792900E+02
1.486603E-02	0.000000E+00	2.797400E+02
1.428419E-02	0.000000E+00	2.806400E+02
1.382978E-02	0.000000E+00	2.810800E+02
1.360103E-02	0.000000E+00	2.815200E+02
1.440701E-02	0.000000E+00	2.819700E+02
1.495584E-02	0.000000E+00	2.824100E+02
1.516769E-02	0.000000E+00	2.828600E+02
1.554842E-02	0.000000E+00	2.833000E+02
1.509093E-02	0.000000E+00	2.837500E+02
1.424044E-02	0.000000E+00	2.841900E+02
1.430338E-02	0.000000E+00	2.846300E+02
1.334005E-02	0.000000E+00	2.850800E+02
1.302840E-02	0.000000E+00	2.855100E+02
1.326559E-02	0.000000E+00	2.859600E+02
1.414833E-02	0.000000E+00	2.864000E+02
1.485682E-02	0.000000E+00	2.868500E+02
1.411302E-02	0.000000E+00	2.872900E+02
1.433562E-02	0.000000E+00	2.877400E+02
1.475089E-02	0.000000E+00	2.881800E+02
1.473093E-02	0.000000E+00	2.886100E+02
1.512855E-02	0.000000E+00	2.890700E+02
1.536727E-02	0.000000E+00	2.895100E+02
1.439549E-02	0.000000E+00	2.904000E+02
1.502262E-02	0.000000E+00	2.908500E+02
1.535729E-02	0.000000E+00	2.912800E+02
1.532198E-02	0.000000E+00	2.917300E+02
1.538569E-02	0.000000E+00	2.921700E+02
1.563593E-02	0.000000E+00	2.926100E+02
1.476087E-02	0.000000E+00	2.930600E+02
1.462654E-02	0.000000E+00	2.935000E+02
1.110097E-02	0.000000E+00	2.939500E+02
1.522833E-02	0.000000E+00	2.943900E+02
1.488982E-02	0.000000E+00	2.948300E+02
1.437937E-02	0.000000E+00	2.952700E+02
1.417059E-02	0.000000E+00	2.957200E+02
1.344598E-02	0.000000E+00	2.961600E+02
1.352811E-02	0.000000E+00	2.966000E+02
1.332700E-02	0.000000E+00	2.970500E+02
1.429878E-02	0.000000E+00	2.974800E+02
1.518381E-02	0.000000E+00	2.979300E+02
1.518765E-02	0.000000E+00	2.983700E+02
1.481460E-02	0.000000E+00	2.988200E+02
1.502569E-02	0.000000E+00	2.992600E+02
1.542177E-02	0.000000E+00	2.997100E+02
1.556224E-02	0.000000E+00	3.005900E+02
