CORRW ASCII
  CorrWare for Windows: Version 3.5f
  Potentiodynamic	[-0.3 OC,0.15 OC,2.5mV/S][default]	100%O2_700C_RECE_IV_1.z
  Date: 11-04-2019    Time: 21:13:06
   
   
  Open Circuit Potential (V): 0
  Begin Information:          Cell Information
    Surface Area:             1
    Density:                  0
    Weight:                   0
    Polarity:                 0
    PolarityI:                0
    Corrosion Unit Type:      0
    Reference Type:           0
    Reference Potential:      0
    User-Defined Potential:   0
    Stern-Geary:              26
  End Information:            Cell Information
  Begin Pstat:                1287
    Pstat Title:              Instrument #1
    Booster Type:             0
    Booster Name:             None
    Current Range:            0
    Current Limit:            0
    Current LimitType:        0
    Sweep Type:               0
    Use Error Beep:           1
    Auxilary Type:            0
    iR Comp. Type:            0
    iR Ohms:                  0
    iR Time:                  27
    iR Ratio:                 255
    LP Filter Type:           1
    Drift Correction:         1
    Null Correction:          0
    Pstat Bandwidth Type:     2
    Gstat Bandwidth Type:     2
    External Input:           0
    SafetyMinV:               0
    SafetyMaxV:               10
    SafetyMinI:               0
    SafetyMaxI:               4
    SafetyMinQ:               0
    SafetyMaxQ:               1000
    SafetyMinT:               0
    SafetyMaxT:               50
    SafetyChT:                0
    SafetyMinVUse:            0
    SafetyMaxVUse:            0
    SafetyMinIUse:            0
    SafetyMaxIUse:            0
    SafetyMinQUse:            0
    SafetyMaxQUse:            0
    SafetyMinTUse:            0
    SafetyMaxTUse:            0
  End Pstat:                  1287
  Begin Experiment:           Potentiodynamic	[-0.3 OC,0.15 OC,2.5mV/S][default]	100%O2_700C_RECE_IV_1.z
    Data File:                \\ANALYSIS\ANALYSIS_Data\191101_Amezawa\fr_XAS\DPB1\100% O2\Electrochem\100%O2_700C_RECE_IV_1.z
    Data Append:              0
    Comment Lines:            0
    Potential #1:             -0.3
    Potential #1 Type:        0
    Potential #2:             0
    Potential #2 Type:        0
    Use Potential #2:         0
    Potential #3:             0
    Potential #3 Type:        0
    Use Potential #3:         0
    Potential #4:             0.15
    Potential #4 Type:        0
    Scan Rate:                2.5
    Measure Rate Type:        2
    Measure Rate #1:          2000
    Measure Rate #2:          1
    Measure Rate #3:          1
    Measure Rate #4:          0.1
    Measure Rate #5:          1
    Use Threshold:            0
    Use Reverse:              0
    Threshold E_Min:          -10
    Threshold E_Max:          10
    Threshold I_Min:          0.001
    Threshold I_Max:          -0.001
    Axes Type:                5
    Use Custom Pstat:         0
  End Experiment:             Potentiodynamic	[-0.3 OC,0.15 OC,2.5mV/S][default]	100%O2_700C_RECE_IV_1.z
  Data Points:                144
  E(Volts)	I(A/cm2)	T(Seconds)
End Comments
-3.006597E-01	-7.217839E-02	0.000000E+00
-2.996770E-01	-7.230119E-02	4.000000E-01
-2.986330E-01	-7.224593E-02	7.800000E-01
-2.974047E-01	-7.208629E-02	1.250000E+00
-2.962378E-01	-7.194506E-02	1.650000E+00
-2.951938E-01	-7.175472E-02	2.050000E+00
-2.941497E-01	-7.153981E-02	2.490000E+00
-2.932285E-01	-7.130035E-02	2.850000E+00
-2.920002E-01	-7.101176E-02	3.300000E+00
-2.909561E-01	-7.082142E-02	3.680000E+00
-2.900349E-01	-7.058809E-02	4.070000E+00
-2.889909E-01	-7.033635E-02	4.460000E+00
-2.880082E-01	-7.010917E-02	4.860000E+00
-2.870870E-01	-6.988198E-02	5.230000E+00
-2.861044E-01	-6.965479E-02	5.620000E+00
-2.851218E-01	-6.941532E-02	6.010000E+00
-2.841391E-01	-6.916358E-02	6.450000E+00
-2.831565E-01	-6.892411E-02	6.850000E+00
-2.819282E-01	-6.861097E-02	7.330000E+00
-2.807613E-01	-6.833467E-02	7.810000E+00
-2.797787E-01	-6.808906E-02	8.210000E+00
-2.788574E-01	-6.784346E-02	8.610000E+00
-2.778134E-01	-6.761628E-02	9.050000E+00
-2.768308E-01	-6.735838E-02	9.450000E+00
-2.758481E-01	-6.711892E-02	9.850000E+00
-2.749269E-01	-6.691630E-02	1.021000E+01
-2.738828E-01	-6.663999E-02	1.065000E+01
-2.729002E-01	-6.643122E-02	1.104000E+01
-2.718562E-01	-6.617334E-02	1.149000E+01
-2.708121E-01	-6.590931E-02	1.188000E+01
-2.697681E-01	-6.565143E-02	1.230000E+01
-2.687854E-01	-6.541197E-02	1.271000E+01
-2.679256E-01	-6.519706E-02	1.308000E+01
-2.668816E-01	-6.495146E-02	1.355000E+01
-2.658989E-01	-6.472427E-02	1.395000E+01
-2.648549E-01	-6.447253E-02	1.435000E+01
-2.638723E-01	-6.425148E-02	1.473000E+01
-2.629510E-01	-6.400587E-02	1.515000E+01
-2.617841E-01	-6.372957E-02	1.560000E+01
-2.608015E-01	-6.350239E-02	1.601000E+01
-2.598189E-01	-6.323836E-02	1.645000E+01
-2.588362E-01	-6.301731E-02	1.685000E+01
-2.577922E-01	-6.272873E-02	1.725000E+01
-2.568710E-01	-6.251382E-02	1.765000E+01
-2.558883E-01	-6.227436E-02	1.801000E+01
-2.548443E-01	-6.202875E-02	1.845000E+01
-2.538617E-01	-6.178315E-02	1.889000E+01
-2.525105E-01	-6.145158E-02	1.940000E+01
-2.515893E-01	-6.121211E-02	1.978000E+01
-2.505453E-01	-6.094809E-02	2.025000E+01
-2.496240E-01	-6.073933E-02	2.062000E+01
-2.486414E-01	-6.049986E-02	2.105000E+01
-2.476588E-01	-6.026654E-02	2.146000E+01
-2.466147E-01	-6.001479E-02	2.186000E+01
-2.454478E-01	-5.971393E-02	2.235000E+01
-2.445266E-01	-5.949288E-02	2.272000E+01
-2.435440E-01	-5.927183E-02	2.315000E+01
-2.424999E-01	-5.902623E-02	2.355000E+01
-2.416401E-01	-5.881746E-02	2.391000E+01
-2.406575E-01	-5.856572E-02	2.435000E+01
-2.397363E-01	-5.831397E-02	2.472000E+01
-2.386922E-01	-5.806223E-02	2.519000E+01
-2.376482E-01	-5.780434E-02	2.558000E+01
-2.366041E-01	-5.758330E-02	2.600000E+01
-2.356829E-01	-5.735611E-02	2.637000E+01
-2.347617E-01	-5.714121E-02	2.677000E+01
-2.337790E-01	-5.695087E-02	2.720000E+01
-2.325507E-01	-5.665000E-02	2.767000E+01
-2.315067E-01	-5.639825E-02	2.810000E+01
-2.305240E-01	-5.616493E-02	2.849000E+01
-2.294186E-01	-5.587634E-02	2.897000E+01
-2.284359E-01	-5.563688E-02	2.940000E+01
-2.275147E-01	-5.540355E-02	2.976000E+01
-2.265321E-01	-5.516408E-02	3.016000E+01
-2.254880E-01	-5.491234E-02	3.060000E+01
-2.245668E-01	-5.469744E-02	3.100000E+01
-2.235228E-01	-5.445183E-02	3.140000E+01
-2.225401E-01	-5.420623E-02	3.183000E+01
-2.216189E-01	-5.397904E-02	3.222000E+01
-2.206977E-01	-5.373957E-02	3.261000E+01
-2.197151E-01	-5.352467E-02	3.301000E+01
-2.186096E-01	-5.322995E-02	3.350000E+01
-2.175655E-01	-5.299662E-02	3.390000E+01
-2.166443E-01	-5.276944E-02	3.430000E+01
-2.157231E-01	-5.253611E-02	3.467000E+01
-2.146791E-01	-5.230892E-02	3.510000E+01
-2.136964E-01	-5.205718E-02	3.550000E+01
-2.127138E-01	-5.181772E-02	3.590000E+01
-2.117926E-01	-5.158439E-02	3.630000E+01
-2.107485E-01	-5.135107E-02	3.672000E+01
-2.098273E-01	-5.110546E-02	3.711000E+01
-2.089675E-01	-5.084144E-02	3.749000E+01
-2.080462E-01	-5.060811E-02	3.788000E+01
-2.070636E-01	-5.037478E-02	3.827000E+01
-2.058968E-01	-5.008620E-02	3.875000E+01
-2.049755E-01	-4.987743E-02	3.912000E+01
-2.039929E-01	-4.965025E-02	3.952000E+01
-2.030717E-01	-4.942307E-02	3.992000E+01
-2.021504E-01	-4.917132E-02	4.035000E+01
-2.011064E-01	-4.892571E-02	4.075000E+01
-2.001852E-01	-4.867397E-02	4.115000E+01
-1.991411E-01	-4.844064E-02	4.155000E+01
-1.982199E-01	-4.821960E-02	4.195000E+01
-1.971758E-01	-4.797399E-02	4.237000E+01
-1.963160E-01	-4.776523E-02	4.276000E+01
-1.951492E-01	-4.748892E-02	4.321000E+01
-1.941665E-01	-4.724332E-02	4.362000E+01
-1.932453E-01	-4.700385E-02	4.402000E+01
-1.922013E-01	-4.675210E-02	4.445000E+01
-1.912186E-01	-4.652492E-02	4.485000E+01
-1.902974E-01	-4.629774E-02	4.522000E+01
-1.892534E-01	-4.606441E-02	4.566000E+01
-1.883321E-01	-4.583108E-02	4.607000E+01
-1.874109E-01	-4.560390E-02	4.645000E+01
-1.861826E-01	-4.529690E-02	4.695000E+01
-1.850772E-01	-4.506971E-02	4.740000E+01
-1.841559E-01	-4.484252E-02	4.781000E+01
-1.832961E-01	-4.462762E-02	4.817000E+01
-1.822521E-01	-4.440043E-02	4.857000E+01
-1.813309E-01	-4.417325E-02	4.896000E+01
-1.804096E-01	-4.393993E-02	4.936000E+01
-1.794884E-01	-4.371888E-02	4.973000E+01
-1.785058E-01	-4.347327E-02	5.012000E+01
-1.775232E-01	-4.324609E-02	5.053000E+01
-1.765405E-01	-4.301276E-02	5.095000E+01
-1.755579E-01	-4.277944E-02	5.136000E+01
-1.745752E-01	-4.253997E-02	5.176000E+01
-1.735926E-01	-4.230051E-02	5.219000E+01
-1.727328E-01	-4.207947E-02	5.259000E+01
-1.717502E-01	-4.185228E-02	5.295000E+01
-1.705833E-01	-4.155755E-02	5.345000E+01
-1.696621E-01	-4.133037E-02	5.380000E+01
-1.687408E-01	-4.112161E-02	5.417000E+01
-1.676307E-01	-4.079004E-02	5.465000E+01
-1.667464E-01	-4.056899E-02	5.500000E+01
-1.658560E-01	-4.034794E-02	5.538000E+01
-1.649164E-01	-4.011462E-02	5.577000E+01
-1.639401E-01	-3.988130E-02	5.617000E+01
-1.629146E-01	-3.963569E-02	5.661000E+01
-1.619504E-01	-3.939623E-02	5.701000E+01
-1.606916E-01	-3.915062E-02	5.751000E+01
-1.598012E-01	-3.894800E-02	5.789000E+01
-1.588248E-01	-3.867783E-02	5.832000E+01
-1.577379E-01	-3.843837E-02	5.876000E+01
