CORRW ASCII
  CorrWare for Windows: Version 3.5f
  Potentiostatic	[-0.2 Ref,3600 Sec][default]
  Date: 11-04-2019    Time: 18:53:22
   
   
  Open Circuit Potential (V): 0.0037
  Begin Information:          Cell Information
    Surface Area:             1
    Density:                  0
    Weight:                   0
    Polarity:                 0
    PolarityI:                0
    Corrosion Unit Type:      0
    Reference Type:           0
    Reference Potential:      0
    User-Defined Potential:   0
    Stern-Geary:              26
  End Information:            Cell Information
  Begin Pstat:                1287
    Pstat Title:              Instrument #1
    Booster Type:             0
    Booster Name:             None
    Current Range:            0
    Current Limit:            0
    Current LimitType:        0
    Sweep Type:               0
    Use Error Beep:           1
    Auxilary Type:            0
    iR Comp. Type:            0
    iR Ohms:                  0
    iR Time:                  27
    iR Ratio:                 255
    LP Filter Type:           1
    Drift Correction:         1
    Null Correction:          0
    Pstat Bandwidth Type:     2
    Gstat Bandwidth Type:     2
    External Input:           0
    SafetyMinV:               0
    SafetyMaxV:               10
    SafetyMinI:               0
    SafetyMaxI:               4
    SafetyMinQ:               0
    SafetyMaxQ:               1000
    SafetyMinT:               0
    SafetyMaxT:               50
    SafetyChT:                0
    SafetyMinVUse:            0
    SafetyMaxVUse:            0
    SafetyMinIUse:            0
    SafetyMaxIUse:            0
    SafetyMinQUse:            0
    SafetyMaxQUse:            0
    SafetyMinTUse:            0
    SafetyMaxTUse:            0
  End Pstat:                  1287
  Begin Experiment:           Potentiostatic	[-0.2 Ref,3600 Sec][default]
    Data File
    Data Append:              0
    Comment Lines:            0
    Potential:                -0.2
    Potential Type:           1
    Total Time:               3600
    Time Units:               0
    Time Marker:              -1
    Measure Rate Type:        1
    Measure Rate #1:          2000
    Measure Rate #2:          1
    Measure Rate #3:          0.1
    Measure Rate #4:          2
    Use Threshold:            0
    Threshold I_Min:          -15
    Threshold I_Max:          15
    Threshold Delta:          5
    Threshold Time:           60
    Copy AuxV:                0
    Axes Type:                1
    Use Custom Pstat:         0
  End Experiment:             Potentiostatic	[-0.2 Ref,3600 Sec][default]
  Data Points:                1046
  E(Volts)	I(A/cm2)	T(Seconds)
End Comments
-1.521989E-01	-6.876293E-04	0.000000E+00
-2.000907E-01	-9.688342E-04	1.000000E+00
-2.000969E-01	-9.800161E-04	2.020000E+00
-2.000969E-01	-9.838253E-04	3.100000E+00
-2.000907E-01	-9.848697E-04	4.080000E+00
-2.000907E-01	-9.850541E-04	5.010000E+00
-2.000907E-01	-9.850541E-04	6.050000E+00
-2.000969E-01	-9.847468E-04	7.100000E+00
-2.000969E-01	-9.845624E-04	8.000000E+00
-2.000846E-01	-9.830266E-04	9.100000E+00
-2.000846E-01	-9.827194E-04	1.001000E+01
-2.000908E-01	-9.827808E-04	1.105000E+01
-2.000908E-01	-9.826579E-04	1.203000E+01
-2.000908E-01	-9.825965E-04	1.300000E+01
-2.000908E-01	-9.827194E-04	1.404000E+01
-2.000908E-01	-9.829651E-04	1.505000E+01
-2.000908E-01	-9.829036E-04	1.603000E+01
-2.000908E-01	-9.829651E-04	1.710000E+01
-2.000908E-01	-9.829036E-04	1.815000E+01
-2.000846E-01	-9.833951E-04	1.915000E+01
-2.000846E-01	-9.835180E-04	2.006000E+01
-2.000908E-01	-9.833951E-04	2.103000E+01
-2.000908E-01	-9.832723E-04	2.200000E+01
-2.000846E-01	-9.830879E-04	2.315000E+01
-2.000908E-01	-9.830879E-04	2.406000E+01
-2.000908E-01	-9.829651E-04	2.510000E+01
-2.000846E-01	-9.829036E-04	2.601000E+01
-2.000846E-01	-9.828423E-04	2.711000E+01
-2.000908E-01	-9.829036E-04	2.806000E+01
-2.000907E-01	-9.835795E-04	2.912000E+01
-2.000907E-01	-9.834566E-04	3.005000E+01
-2.000969E-01	-9.833951E-04	3.110000E+01
-2.000969E-01	-9.834566E-04	3.201000E+01
-2.000969E-01	-9.833337E-04	3.305000E+01
-2.000969E-01	-9.832723E-04	3.411000E+01
-2.000969E-01	-9.832723E-04	3.500000E+01
-2.000907E-01	-9.831494E-04	3.605000E+01
-2.000907E-01	-9.830880E-04	3.707000E+01
-2.000969E-01	-9.830266E-04	3.811000E+01
-2.000908E-01	-9.829651E-04	3.911000E+01
-2.000846E-01	-9.828423E-04	4.000000E+01
-2.000846E-01	-9.828423E-04	4.116000E+01
-2.000846E-01	-9.827808E-04	4.206000E+01
-2.000908E-01	-9.827194E-04	4.310000E+01
-2.000908E-01	-9.826579E-04	4.401000E+01
-2.000908E-01	-9.825965E-04	4.505000E+01
-2.000908E-01	-9.825350E-04	4.605000E+01
-2.000908E-01	-9.822893E-04	4.707000E+01
-2.000846E-01	-9.822279E-04	4.811000E+01
-2.000846E-01	-9.820434E-04	4.911000E+01
-2.000908E-01	-9.820434E-04	5.001000E+01
-2.000908E-01	-9.819207E-04	5.102000E+01
-2.000908E-01	-9.819207E-04	5.205000E+01
-2.000908E-01	-9.817978E-04	5.311000E+01
-2.000908E-01	-9.817363E-04	5.401000E+01
-2.000908E-01	-9.815521E-04	5.516000E+01
-2.000908E-01	-9.814291E-04	5.607000E+01
-2.000846E-01	-9.813678E-04	5.711000E+01
-2.000908E-01	-9.813678E-04	5.801000E+01
-2.000846E-01	-9.811834E-04	5.916000E+01
-2.000908E-01	-9.811219E-04	6.002000E+01
-2.000908E-01	-9.811219E-04	6.110000E+01
-2.000908E-01	-9.810604E-04	6.201000E+01
-2.000908E-01	-9.809377E-04	6.311000E+01
-2.000908E-01	-9.808762E-04	6.406000E+01
-2.000908E-01	-9.809377E-04	6.511000E+01
-2.000846E-01	-9.807533E-04	6.610000E+01
-2.000908E-01	-9.807533E-04	6.701000E+01
-2.000908E-01	-9.806304E-04	6.806000E+01
-2.000846E-01	-9.805689E-04	6.916000E+01
-2.000846E-01	-9.805076E-04	7.006000E+01
-2.000908E-01	-9.803846E-04	7.111000E+01
-2.000846E-01	-9.803846E-04	7.203000E+01
-2.000908E-01	-9.803232E-04	7.300000E+01
-2.000846E-01	-9.804461E-04	7.406000E+01
-2.000908E-01	-9.804461E-04	7.511000E+01
-2.000908E-01	-9.803846E-04	7.601000E+01
-2.000908E-01	-9.803232E-04	7.706000E+01
-2.000846E-01	-9.802618E-04	7.807000E+01
-2.000908E-01	-9.801389E-04	7.916000E+01
-2.000908E-01	-9.800775E-04	8.003000E+01
-2.000908E-01	-9.800775E-04	8.104000E+01
-2.000908E-01	-9.800775E-04	8.201000E+01
-2.000908E-01	-9.798931E-04	8.304000E+01
-2.000908E-01	-9.798318E-04	8.411000E+01
-2.000908E-01	-9.797702E-04	8.501000E+01
-2.000969E-01	-9.797089E-04	8.600000E+01
-2.000908E-01	-9.796475E-04	8.707000E+01
-2.000908E-01	-9.797089E-04	8.811000E+01
-2.000846E-01	-9.795246E-04	8.911000E+01
-2.000908E-01	-9.794631E-04	9.001000E+01
-2.000908E-01	-9.794631E-04	9.116000E+01
-2.000908E-01	-9.792788E-04	9.205000E+01
-2.000908E-01	-9.792788E-04	9.305000E+01
-2.000908E-01	-9.792172E-04	9.401000E+01
-2.000908E-01	-9.792172E-04	9.512000E+01
-2.000846E-01	-9.790331E-04	9.616000E+01
-2.000908E-01	-9.789716E-04	9.706000E+01
-2.000908E-01	-9.790331E-04	9.805000E+01
-2.000969E-01	-9.788487E-04	9.921000E+01
-2.000969E-01	-9.789101E-04	1.000100E+02
-2.000907E-01	-9.788487E-04	1.010700E+02
-2.000969E-01	-9.787257E-04	1.021100E+02
-2.000969E-01	-9.786029E-04	1.030100E+02
-2.000969E-01	-9.786029E-04	1.040000E+02
-2.000907E-01	-9.786029E-04	1.050300E+02
-2.000969E-01	-9.785414E-04	1.060800E+02
-2.000969E-01	-9.786029E-04	1.070100E+02
-2.000969E-01	-9.761453E-04	1.080100E+02
-2.000846E-01	-9.747936E-04	1.091200E+02
-2.000908E-01	-9.739336E-04	1.100100E+02
-2.000846E-01	-9.739336E-04	1.110200E+02
-2.000908E-01	-9.739949E-04	1.120700E+02
-2.000908E-01	-9.739949E-04	1.130800E+02
-2.000908E-01	-9.739949E-04	1.141000E+02
-2.000908E-01	-9.739949E-04	1.150200E+02
-2.000908E-01	-9.739949E-04	1.160700E+02
-2.000908E-01	-9.739949E-04	1.171200E+02
-2.000846E-01	-9.739336E-04	1.180000E+02
-2.000969E-01	-9.756538E-04	1.191300E+02
-2.000907E-01	-9.756538E-04	1.200300E+02
-2.000969E-01	-9.755925E-04	1.210500E+02
-2.000969E-01	-9.755311E-04	1.220200E+02
-2.000969E-01	-9.755925E-04	1.230600E+02
-2.000969E-01	-9.755311E-04	1.240800E+02
-2.000969E-01	-9.755311E-04	1.251100E+02
-2.000969E-01	-9.755311E-04	1.260100E+02
-2.000969E-01	-9.755311E-04	1.271200E+02
-2.000969E-01	-9.754695E-04	1.281100E+02
-2.000908E-01	-9.754695E-04	1.291200E+02
-2.000908E-01	-9.754695E-04	1.300200E+02
-2.000846E-01	-9.754081E-04	1.310700E+02
-2.000908E-01	-9.754081E-04	1.320800E+02
-2.000908E-01	-9.754081E-04	1.330200E+02
-2.000908E-01	-9.753467E-04	1.340000E+02
-2.000846E-01	-9.754081E-04	1.350700E+02
-2.000908E-01	-9.753467E-04	1.360800E+02
-2.000908E-01	-9.754081E-04	1.371200E+02
-2.000908E-01	-9.754081E-04	1.380200E+02
-2.000846E-01	-9.752852E-04	1.391300E+02
-2.000846E-01	-9.752238E-04	1.400200E+02
-2.000908E-01	-9.752238E-04	1.410700E+02
-2.000846E-01	-9.751623E-04	1.421200E+02
-2.000846E-01	-9.752852E-04	1.430200E+02
-2.000908E-01	-9.752852E-04	1.440000E+02
-2.000908E-01	-9.752852E-04	1.450800E+02
-2.000908E-01	-9.751623E-04	1.461200E+02
-2.000908E-01	-9.752238E-04	1.471000E+02
-2.000908E-01	-9.751623E-04	1.480700E+02
-2.000846E-01	-9.736879E-04	1.491700E+02
-2.000908E-01	-9.736263E-04	1.500800E+02
-2.000908E-01	-9.736263E-04	1.511200E+02
-2.000908E-01	-9.735650E-04	1.520200E+02
-2.000908E-01	-9.733192E-04	1.530000E+02
-2.000908E-01	-9.733192E-04	1.540700E+02
-2.000908E-01	-9.733192E-04	1.550200E+02
-2.000908E-01	-9.732578E-04	1.560200E+02
-2.000846E-01	-9.732578E-04	1.570700E+02
-2.000846E-01	-9.733192E-04	1.580800E+02
-2.000908E-01	-9.731963E-04	1.591700E+02
-2.000969E-01	-9.731348E-04	1.600700E+02
-2.000908E-01	-9.731963E-04	1.610600E+02
-2.000908E-01	-9.731963E-04	1.620200E+02
-2.000908E-01	-9.731963E-04	1.630700E+02
-2.000908E-01	-9.733191E-04	1.640500E+02
-2.000908E-01	-9.732578E-04	1.650900E+02
-2.000908E-01	-9.732578E-04	1.661300E+02
-2.000908E-01	-9.732578E-04	1.670400E+02
-2.000908E-01	-9.732578E-04	1.680500E+02
-2.000846E-01	-9.749781E-04	1.691200E+02
-2.000908E-01	-9.749781E-04	1.700200E+02
-2.000908E-01	-9.749781E-04	1.710700E+02
-2.000908E-01	-9.749781E-04	1.720000E+02
-2.000908E-01	-9.750395E-04	1.730200E+02
-2.000908E-01	-9.750395E-04	1.740200E+02
-2.000969E-01	-9.750395E-04	1.750700E+02
-2.000846E-01	-9.750395E-04	1.760800E+02
-2.000908E-01	-9.751010E-04	1.770200E+02
-2.000846E-01	-9.750395E-04	1.780200E+02
-2.000969E-01	-9.735650E-04	1.791200E+02
-2.000969E-01	-9.736265E-04	1.800300E+02
-2.000969E-01	-9.735036E-04	1.810700E+02
-2.000907E-01	-9.735650E-04	1.820800E+02
-2.000969E-01	-9.735650E-04	1.830800E+02
-2.000969E-01	-9.735650E-04	1.841200E+02
-2.000969E-01	-9.732579E-04	1.850100E+02
-2.000969E-01	-9.733192E-04	1.860400E+02
-2.000907E-01	-9.733807E-04	1.870800E+02
-2.000969E-01	-9.734422E-04	1.881200E+02
-2.000908E-01	-9.748552E-04	1.891200E+02
-2.000908E-01	-9.749166E-04	1.900300E+02
-2.000908E-01	-9.749166E-04	1.910700E+02
-2.000908E-01	-9.750395E-04	1.920900E+02
-2.000969E-01	-9.750395E-04	1.930300E+02
-2.000908E-01	-9.750395E-04	1.940000E+02
-2.000908E-01	-9.749781E-04	1.950800E+02
-2.000908E-01	-9.750395E-04	1.960800E+02
-2.000908E-01	-9.750395E-04	1.971300E+02
-2.000908E-01	-9.750395E-04	1.980300E+02
-2.000846E-01	-9.751010E-04	1.991800E+02
-2.000969E-01	-9.749781E-04	2.000800E+02
-2.000908E-01	-9.751010E-04	2.011200E+02
-2.000908E-01	-9.751624E-04	2.020200E+02
-2.000908E-01	-9.752238E-04	2.030400E+02
-2.000846E-01	-9.751624E-04	2.040900E+02
-2.000908E-01	-9.752853E-04	2.051200E+02
-2.000908E-01	-9.751624E-04	2.060300E+02
-2.000908E-01	-9.752853E-04	2.070100E+02
-2.000908E-01	-9.751624E-04	2.080400E+02
-2.000846E-01	-9.751010E-04	2.090800E+02
-2.000908E-01	-9.752853E-04	2.101300E+02
-2.000908E-01	-9.751624E-04	2.110300E+02
-2.000908E-01	-9.751010E-04	2.120100E+02
-2.000908E-01	-9.751624E-04	2.130800E+02
-2.000908E-01	-9.752853E-04	2.141300E+02
-2.000908E-01	-9.749781E-04	2.150300E+02
-2.000908E-01	-9.748552E-04	2.160300E+02
-2.000908E-01	-9.751010E-04	2.170700E+02
-2.000908E-01	-9.749781E-04	2.181300E+02
-2.000907E-01	-9.747323E-04	2.190800E+02
-2.000969E-01	-9.744865E-04	2.201300E+02
-2.000969E-01	-9.747323E-04	2.210300E+02
-2.000969E-01	-9.746708E-04	2.220100E+02
-2.000969E-01	-9.747323E-04	2.230100E+02
-2.000969E-01	-9.749166E-04	2.240100E+02
-2.000969E-01	-9.749781E-04	2.250800E+02
-2.000969E-01	-9.748552E-04	2.261300E+02
-2.000969E-01	-9.749781E-04	2.271300E+02
-2.000969E-01	-9.749781E-04	2.281300E+02
-2.000907E-01	-9.751624E-04	2.291300E+02
-2.000969E-01	-9.750395E-04	2.301100E+02
-2.000969E-01	-9.751624E-04	2.310300E+02
-2.000969E-01	-9.749781E-04	2.320100E+02
-2.000969E-01	-9.749166E-04	2.330800E+02
-2.000969E-01	-9.749781E-04	2.340200E+02
-2.000907E-01	-9.749166E-04	2.350300E+02
-2.000969E-01	-9.749781E-04	2.360800E+02
-2.000969E-01	-9.751010E-04	2.371300E+02
-2.000969E-01	-9.749781E-04	2.380300E+02
-2.000907E-01	-9.750395E-04	2.391300E+02
-2.000969E-01	-9.750395E-04	2.400300E+02
-2.000969E-01	-9.750395E-04	2.410200E+02
-2.000969E-01	-9.750395E-04	2.420800E+02
-2.000969E-01	-9.751624E-04	2.430900E+02
-2.000969E-01	-9.750395E-04	2.440300E+02
-2.000969E-01	-9.750395E-04	2.450300E+02
-2.000969E-01	-9.750395E-04	2.460500E+02
-2.000969E-01	-9.749166E-04	2.471100E+02
-2.000969E-01	-9.751010E-04	2.480300E+02
-2.000907E-01	-9.744865E-04	2.491300E+02
-2.000969E-01	-9.744252E-04	2.500000E+02
-2.000969E-01	-9.744865E-04	2.510800E+02
-2.000907E-01	-9.744865E-04	2.520900E+02
-2.000969E-01	-9.743637E-04	2.531300E+02
-2.000907E-01	-9.743022E-04	2.540400E+02
-2.000969E-01	-9.743022E-04	2.550500E+02
-2.000969E-01	-9.743637E-04	2.560900E+02
-2.000907E-01	-9.744252E-04	2.570000E+02
-2.000969E-01	-9.744865E-04	2.580600E+02
-2.000907E-01	-9.750395E-04	2.591800E+02
-2.000907E-01	-9.751010E-04	2.600800E+02
-2.000907E-01	-9.751624E-04	2.611000E+02
-2.000907E-01	-9.752238E-04	2.620300E+02
-2.000969E-01	-9.752238E-04	2.630500E+02
-2.000969E-01	-9.753467E-04	2.640900E+02
-2.000907E-01	-9.752853E-04	2.651300E+02
-2.000969E-01	-9.753467E-04	2.660400E+02
-2.000969E-01	-9.752853E-04	2.670100E+02
-2.000969E-01	-9.753467E-04	2.680500E+02
-2.000908E-01	-9.754081E-04	2.690900E+02
-2.000908E-01	-9.754081E-04	2.700000E+02
-2.000908E-01	-9.753468E-04	2.710300E+02
-2.000846E-01	-9.753468E-04	2.720800E+02
-2.000908E-01	-9.753468E-04	2.730100E+02
-2.000846E-01	-9.752852E-04	2.740000E+02
-2.000908E-01	-9.752238E-04	2.750300E+02
-2.000908E-01	-9.752238E-04	2.760800E+02
-2.000908E-01	-9.752852E-04	2.770900E+02
-2.000908E-01	-9.752238E-04	2.781400E+02
-2.000846E-01	-9.752238E-04	2.791400E+02
-2.000846E-01	-9.751625E-04	2.800400E+02
-2.000846E-01	-9.751625E-04	2.810200E+02
-2.000908E-01	-9.751625E-04	2.820500E+02
-2.000846E-01	-9.751625E-04	2.830000E+02
-2.000908E-01	-9.751625E-04	2.840400E+02
-2.000908E-01	-9.752238E-04	2.850100E+02
-2.000846E-01	-9.751625E-04	2.860800E+02
-2.000908E-01	-9.752852E-04	2.870100E+02
-2.000908E-01	-9.751010E-04	2.880400E+02
-2.000908E-01	-9.739336E-04	2.891400E+02
-2.000908E-01	-9.738108E-04	2.900400E+02
-2.000908E-01	-9.738722E-04	2.910200E+02
-2.000846E-01	-9.739336E-04	2.920800E+02
-2.000908E-01	-9.738722E-04	2.931000E+02
-2.000908E-01	-9.738722E-04	2.941000E+02
-2.000908E-01	-9.739951E-04	2.950400E+02
-2.000908E-01	-9.740565E-04	2.960500E+02
-2.000846E-01	-9.740565E-04	2.970900E+02
-2.000969E-01	-9.741180E-04	2.981000E+02
-2.000907E-01	-9.754695E-04	2.990900E+02
-2.000969E-01	-9.755311E-04	3.001000E+02
-2.000969E-01	-9.755925E-04	3.011400E+02
-2.000907E-01	-9.755311E-04	3.020400E+02
-2.000969E-01	-9.755311E-04	3.030900E+02
-2.000969E-01	-9.754695E-04	3.041000E+02
-2.000969E-01	-9.755311E-04	3.050300E+02
-2.000969E-01	-9.755311E-04	3.060400E+02
-2.000969E-01	-9.754695E-04	3.070900E+02
-2.000969E-01	-9.755925E-04	3.081000E+02
-2.000969E-01	-9.739334E-04	3.090900E+02
-2.000907E-01	-9.739334E-04	3.101000E+02
-2.000969E-01	-9.739334E-04	3.110400E+02
-2.000907E-01	-9.739334E-04	3.120900E+02
-2.000969E-01	-9.739334E-04	3.130800E+02
-2.000969E-01	-9.739950E-04	3.140400E+02
-2.001030E-01	-9.739334E-04	3.150300E+02
-2.000969E-01	-9.739950E-04	3.161000E+02
-2.000969E-01	-9.740564E-04	3.171400E+02
-2.000969E-01	-9.741178E-04	3.180000E+02
-2.000907E-01	-9.741178E-04	3.191400E+02
-2.000969E-01	-9.742408E-04	3.200400E+02
-2.000969E-01	-9.742408E-04	3.210200E+02
-2.000969E-01	-9.741178E-04	3.221000E+02
-2.000969E-01	-9.741178E-04	3.230100E+02
-2.000969E-01	-9.741793E-04	3.240400E+02
-2.000969E-01	-9.740565E-04	3.250300E+02
-2.000907E-01	-9.741793E-04	3.260900E+02
-2.000907E-01	-9.741793E-04	3.271000E+02
-2.000969E-01	-9.741178E-04	3.281000E+02
-2.000907E-01	-9.758996E-04	3.291400E+02
-2.000907E-01	-9.758996E-04	3.300400E+02
-2.000907E-01	-9.759611E-04	3.310500E+02
-2.000969E-01	-9.760225E-04	3.321000E+02
-2.000969E-01	-9.759611E-04	3.330400E+02
-2.000969E-01	-9.760225E-04	3.340400E+02
-2.000969E-01	-9.760225E-04	3.350500E+02
-2.000969E-01	-9.760225E-04	3.360700E+02
-2.000907E-01	-9.760225E-04	3.370100E+02
-2.000969E-01	-9.759611E-04	3.380400E+02
-2.000907E-01	-9.757153E-04	3.391500E+02
-2.000969E-01	-9.756538E-04	3.400400E+02
-2.000907E-01	-9.755925E-04	3.411000E+02
-2.000969E-01	-9.756538E-04	3.420000E+02
-2.000969E-01	-9.756538E-04	3.430000E+02
-2.000907E-01	-9.756538E-04	3.440500E+02
-2.000969E-01	-9.757153E-04	3.451000E+02
-2.000907E-01	-9.757153E-04	3.460800E+02
-2.000969E-01	-9.757768E-04	3.470100E+02
-2.000907E-01	-9.756538E-04	3.480700E+02
-2.000907E-01	-9.756538E-04	3.492000E+02
-2.000907E-01	-9.756538E-04	3.500000E+02
-2.000969E-01	-9.756538E-04	3.510400E+02
-2.000969E-01	-9.755925E-04	3.520500E+02
-2.000969E-01	-9.755311E-04	3.530900E+02
-2.000969E-01	-9.754695E-04	3.541000E+02
-2.000969E-01	-9.754695E-04	3.550400E+02
-2.000907E-01	-9.754695E-04	3.560500E+02
-2.000969E-01	-9.754695E-04	3.570900E+02
-2.000969E-01	-9.754081E-04	3.580200E+02
-2.000969E-01	-9.755311E-04	3.591500E+02
-2.000969E-01	-9.720290E-04	3.600500E+02
-2.000969E-01	-9.754081E-04	3.610200E+02
-2.001030E-01	-9.755311E-04	3.620300E+02
-2.000969E-01	-9.754695E-04	3.630000E+02
-2.000907E-01	-9.754081E-04	3.640000E+02
-2.000907E-01	-9.753467E-04	3.651500E+02
-2.000969E-01	-9.754081E-04	3.660500E+02
-2.000969E-01	-9.753467E-04	3.670300E+02
-2.000907E-01	-9.754081E-04	3.680900E+02
-2.000846E-01	-9.753467E-04	3.691000E+02
-2.000908E-01	-9.753467E-04	3.701000E+02
-2.000908E-01	-9.753467E-04	3.710500E+02
-2.000908E-01	-9.753467E-04	3.720800E+02
-2.000908E-01	-9.753467E-04	3.730000E+02
-2.000908E-01	-9.752853E-04	3.741500E+02
-2.000969E-01	-9.753467E-04	3.750500E+02
-2.000908E-01	-9.753467E-04	3.760000E+02
-2.000908E-01	-9.753467E-04	3.770000E+02
-2.000908E-01	-9.753467E-04	3.780400E+02
-2.000846E-01	-9.749166E-04	3.791600E+02
-2.000908E-01	-9.749166E-04	3.801000E+02
-2.000908E-01	-9.748552E-04	3.810700E+02
-2.000908E-01	-9.748552E-04	3.821100E+02
-2.000846E-01	-9.747936E-04	3.830400E+02
-2.000908E-01	-9.748552E-04	3.840400E+02
-2.000969E-01	-9.749166E-04	3.851000E+02
-2.000908E-01	-9.747936E-04	3.860800E+02
-2.000908E-01	-9.748552E-04	3.871500E+02
-2.000908E-01	-9.749780E-04	3.880500E+02
-2.000846E-01	-9.737491E-04	3.891500E+02
-2.000908E-01	-9.739334E-04	3.900400E+02
-2.000846E-01	-9.738107E-04	3.910400E+02
-2.000908E-01	-9.740564E-04	3.921000E+02
-2.000908E-01	-9.739950E-04	3.930000E+02
-2.000908E-01	-9.741178E-04	3.940200E+02
-2.000908E-01	-9.741793E-04	3.950500E+02
-2.000846E-01	-9.741793E-04	3.961000E+02
-2.000846E-01	-9.741793E-04	3.970000E+02
-2.000908E-01	-9.739950E-04	3.980500E+02
-2.000846E-01	-9.757768E-04	3.991200E+02
-2.000908E-01	-9.757768E-04	4.000200E+02
-2.000908E-01	-9.757153E-04	4.010500E+02
-2.000908E-01	-9.756539E-04	4.020300E+02
-2.000846E-01	-9.757768E-04	4.031000E+02
-2.000908E-01	-9.757768E-04	4.040000E+02
-2.000908E-01	-9.757768E-04	4.050200E+02
-2.000908E-01	-9.757768E-04	4.060700E+02
-2.000908E-01	-9.757768E-04	4.070100E+02
-2.000908E-01	-9.757768E-04	4.080500E+02
-2.000846E-01	-9.741793E-04	4.091600E+02
-2.000908E-01	-9.741793E-04	4.100600E+02
-2.000908E-01	-9.741793E-04	4.111000E+02
-2.000846E-01	-9.741793E-04	4.120000E+02
-2.000846E-01	-9.741178E-04	4.130000E+02
-2.000908E-01	-9.742408E-04	4.140500E+02
-2.000908E-01	-9.740565E-04	4.150600E+02
-2.000908E-01	-9.742408E-04	4.161000E+02
-2.000908E-01	-9.740565E-04	4.170100E+02
-2.000908E-01	-9.739336E-04	4.180500E+02
-2.000908E-01	-9.754695E-04	4.191700E+02
-2.000908E-01	-9.754695E-04	4.201100E+02
-2.000908E-01	-9.755311E-04	4.211200E+02
-2.000908E-01	-9.754695E-04	4.220600E+02
-2.000846E-01	-9.703702E-04	4.230900E+02
-2.000908E-01	-9.755311E-04	4.240100E+02
-2.000908E-01	-9.755311E-04	4.250500E+02
-2.000908E-01	-9.753467E-04	4.261100E+02
-2.000969E-01	-9.755925E-04	4.270800E+02
-2.000908E-01	-9.754695E-04	4.280000E+02
-2.000907E-01	-9.754696E-04	4.291600E+02
-2.000969E-01	-9.755310E-04	4.300200E+02
-2.000969E-01	-9.756539E-04	4.310600E+02
-2.000907E-01	-9.754696E-04	4.320000E+02
-2.000969E-01	-9.757153E-04	4.330200E+02
-2.000969E-01	-9.757768E-04	4.340500E+02
-2.000907E-01	-9.757153E-04	4.351100E+02
-2.000969E-01	-9.757153E-04	4.360800E+02
-2.000907E-01	-9.756539E-04	4.370100E+02
-2.000969E-01	-9.758996E-04	4.380600E+02
-2.000969E-01	-9.743022E-04	4.391600E+02
-2.000969E-01	-9.741178E-04	4.400500E+02
-2.000969E-01	-9.741794E-04	4.410400E+02
-2.000969E-01	-9.743022E-04	4.421100E+02
-2.000969E-01	-9.741794E-04	4.430100E+02
-2.000969E-01	-9.743637E-04	4.441500E+02
-2.000969E-01	-9.743637E-04	4.450600E+02
-2.000969E-01	-9.741794E-04	4.460400E+02
-2.000969E-01	-9.743637E-04	4.470700E+02
-2.000969E-01	-9.743022E-04	4.480100E+02
-2.000907E-01	-9.746093E-04	4.491100E+02
-2.000969E-01	-9.746093E-04	4.500100E+02
-2.000969E-01	-9.743636E-04	4.511600E+02
-2.000907E-01	-9.746093E-04	4.520600E+02
-2.000907E-01	-9.743022E-04	4.531000E+02
-2.000969E-01	-9.740564E-04	4.540100E+02
-2.000969E-01	-9.739336E-04	4.550200E+02
-2.000969E-01	-9.740564E-04	4.560700E+02
-2.000969E-01	-9.741793E-04	4.570100E+02
-2.000969E-01	-9.741180E-04	4.580300E+02
-2.000908E-01	-9.755925E-04	4.590100E+02
-2.000908E-01	-9.755925E-04	4.600000E+02
-2.000908E-01	-9.758382E-04	4.610100E+02
-2.000969E-01	-9.757153E-04	4.620600E+02
-2.000908E-01	-9.757768E-04	4.631100E+02
-2.000908E-01	-9.759611E-04	4.641100E+02
-2.000908E-01	-9.760840E-04	4.650100E+02
-2.000908E-01	-9.759611E-04	4.661600E+02
-2.000846E-01	-9.760225E-04	4.670600E+02
-2.000908E-01	-9.758382E-04	4.680400E+02
-2.000969E-01	-9.760225E-04	4.692100E+02
-2.000969E-01	-9.758382E-04	4.700100E+02
-2.000969E-01	-9.758382E-04	4.710300E+02
-2.000969E-01	-9.760225E-04	4.720700E+02
-2.000969E-01	-9.759611E-04	4.731000E+02
-2.000969E-01	-9.760225E-04	4.741600E+02
-2.000969E-01	-9.758382E-04	4.750900E+02
-2.000969E-01	-9.759611E-04	4.761100E+02
-2.001030E-01	-9.759611E-04	4.771100E+02
-2.000969E-01	-9.758996E-04	4.780200E+02
-2.000969E-01	-9.760225E-04	4.791600E+02
-2.000969E-01	-9.759611E-04	4.800700E+02
-2.000907E-01	-9.760225E-04	4.811100E+02
-2.000969E-01	-9.758996E-04	4.820200E+02
-2.000969E-01	-9.760225E-04	4.830300E+02
-2.000907E-01	-9.760840E-04	4.840300E+02
-2.000969E-01	-9.759611E-04	4.850700E+02
-2.000907E-01	-9.760840E-04	4.861100E+02
-2.000969E-01	-9.759611E-04	4.870100E+02
-2.000907E-01	-9.758996E-04	4.880300E+02
-2.000907E-01	-9.757153E-04	4.890600E+02
-2.000969E-01	-9.755310E-04	4.901100E+02
-2.000907E-01	-9.755310E-04	4.910200E+02
-2.000907E-01	-9.757153E-04	4.920200E+02
-2.000969E-01	-9.756539E-04	4.930700E+02
-2.000907E-01	-9.757153E-04	4.940200E+02
-2.001030E-01	-9.757768E-04	4.950300E+02
-2.000969E-01	-9.758382E-04	4.960700E+02
-2.000969E-01	-9.758382E-04	4.971100E+02
-2.000969E-01	-9.758382E-04	4.980400E+02
-2.000846E-01	-9.758382E-04	4.991100E+02
-2.000969E-01	-9.758996E-04	5.000100E+02
-2.000908E-01	-9.760225E-04	5.011200E+02
-2.000908E-01	-9.759611E-04	5.020600E+02
-2.000908E-01	-9.760225E-04	5.030500E+02
-2.000908E-01	-9.759611E-04	5.041200E+02
-2.000969E-01	-9.758996E-04	5.050200E+02
-2.000908E-01	-9.760225E-04	5.060000E+02
-2.000908E-01	-9.760225E-04	5.070700E+02
-2.000908E-01	-9.758996E-04	5.081200E+02
-2.000969E-01	-9.760225E-04	5.091200E+02
-2.000969E-01	-9.758996E-04	5.100200E+02
-2.000907E-01	-9.758382E-04	5.110000E+02
-2.000907E-01	-9.759611E-04	5.120700E+02
-2.000969E-01	-9.760225E-04	5.130700E+02
-2.000969E-01	-9.759611E-04	5.141200E+02
-2.000969E-01	-9.758996E-04	5.151000E+02
-2.000969E-01	-9.758382E-04	5.160000E+02
-2.000969E-01	-9.759611E-04	5.170000E+02
-2.000969E-01	-9.758996E-04	5.180000E+02
-2.000908E-01	-9.745480E-04	5.191700E+02
-2.000908E-01	-9.746095E-04	5.200800E+02
-2.000908E-01	-9.746708E-04	5.210200E+02
-2.000908E-01	-9.747323E-04	5.220700E+02
-2.000846E-01	-9.745480E-04	5.231000E+02
-2.000908E-01	-9.746095E-04	5.240200E+02
-2.000908E-01	-9.746708E-04	5.250700E+02
-2.000908E-01	-9.747323E-04	5.260800E+02
-2.000969E-01	-9.747323E-04	5.270700E+02
-2.000908E-01	-9.747937E-04	5.280200E+02
-2.000969E-01	-9.745480E-04	5.291200E+02
-2.000969E-01	-9.745480E-04	5.300200E+02
-2.000969E-01	-9.745480E-04	5.310000E+02
-2.000907E-01	-9.744865E-04	5.320700E+02
-2.001030E-01	-9.744865E-04	5.330800E+02
-2.000969E-01	-9.744252E-04	5.341200E+02
-2.000969E-01	-9.743637E-04	5.350200E+02
-2.000969E-01	-9.743022E-04	5.360000E+02
-2.000969E-01	-9.741178E-04	5.370700E+02
-2.000969E-01	-9.739951E-04	5.380500E+02
-2.000969E-01	-9.747323E-04	5.390200E+02
-2.000969E-01	-9.746095E-04	5.400200E+02
-2.000969E-01	-9.745480E-04	5.410100E+02
-2.000969E-01	-9.746095E-04	5.420800E+02
-2.000969E-01	-9.745480E-04	5.430200E+02
-2.000969E-01	-9.746709E-04	5.440300E+02
-2.001030E-01	-9.746709E-04	5.450800E+02
-2.000907E-01	-9.746709E-04	5.461200E+02
-2.000907E-01	-9.746709E-04	5.470200E+02
-2.000907E-01	-9.746709E-04	5.480200E+02
-2.000969E-01	-9.754081E-04	5.491300E+02
-2.001030E-01	-9.754696E-04	5.500700E+02
-2.001030E-01	-9.754696E-04	5.510500E+02
-2.000969E-01	-9.754696E-04	5.520200E+02
-2.001030E-01	-9.754696E-04	5.530300E+02
-2.000969E-01	-9.755310E-04	5.540400E+02
-2.001030E-01	-9.756539E-04	5.551200E+02
-2.001030E-01	-9.756539E-04	5.560100E+02
-2.001030E-01	-9.757153E-04	5.570700E+02
-2.001030E-01	-9.757153E-04	5.581200E+02
-2.000908E-01	-9.758382E-04	5.591200E+02
-2.000908E-01	-9.758996E-04	5.600300E+02
-2.000908E-01	-9.759611E-04	5.610700E+02
-2.000908E-01	-9.760226E-04	5.621200E+02
-2.000908E-01	-9.759611E-04	5.630200E+02
-2.000908E-01	-9.760839E-04	5.640100E+02
-2.000908E-01	-9.761455E-04	5.650800E+02
-2.000908E-01	-9.762069E-04	5.661200E+02
-2.000908E-01	-9.762683E-04	5.670100E+02
-2.000908E-01	-9.763911E-04	5.680700E+02
-2.000969E-01	-9.755925E-04	5.691700E+02
-2.000969E-01	-9.755925E-04	5.700400E+02
-2.000969E-01	-9.755310E-04	5.710400E+02
-2.000969E-01	-9.755310E-04	5.720900E+02
-2.000969E-01	-9.755310E-04	5.731000E+02
-2.000969E-01	-9.754696E-04	5.740200E+02
-2.000969E-01	-9.755310E-04	5.750000E+02
-2.000907E-01	-9.755310E-04	5.760700E+02
-2.000969E-01	-9.755310E-04	5.770900E+02
-2.000907E-01	-9.755925E-04	5.780200E+02
-2.000907E-01	-9.763911E-04	5.791400E+02
-2.000969E-01	-9.763911E-04	5.800400E+02
-2.000969E-01	-9.763911E-04	5.810800E+02
-2.000969E-01	-9.763911E-04	5.820900E+02
-2.000907E-01	-9.763911E-04	5.830300E+02
-2.000969E-01	-9.762068E-04	5.840100E+02
-2.000969E-01	-9.756538E-04	5.850800E+02
-2.000969E-01	-9.757153E-04	5.861300E+02
-2.000907E-01	-9.756538E-04	5.870300E+02
-2.000969E-01	-9.756538E-04	5.880100E+02
-2.000907E-01	-9.757153E-04	5.891300E+02
-2.000969E-01	-9.757153E-04	5.900300E+02
-2.000969E-01	-9.757768E-04	5.910400E+02
-2.000969E-01	-9.758382E-04	5.921300E+02
-2.000969E-01	-9.758382E-04	5.930300E+02
-2.000969E-01	-9.758996E-04	5.940400E+02
-2.000969E-01	-9.758996E-04	5.950900E+02
-2.001030E-01	-9.758996E-04	5.960100E+02
-2.000969E-01	-9.758996E-04	5.970300E+02
-2.000969E-01	-9.758382E-04	5.980400E+02
-2.000969E-01	-9.758382E-04	5.991800E+02
-2.000907E-01	-9.758382E-04	6.000900E+02
-2.000969E-01	-9.759611E-04	6.011300E+02
-2.000969E-01	-9.759611E-04	6.020300E+02
-2.000969E-01	-9.760225E-04	6.030100E+02
-2.000969E-01	-9.760225E-04	6.040900E+02
-2.000969E-01	-9.760225E-04	6.050200E+02
-2.000969E-01	-9.760840E-04	6.060300E+02
-2.000969E-01	-9.760840E-04	6.070200E+02
-2.000907E-01	-9.761454E-04	6.080800E+02
-2.000969E-01	-9.762069E-04	6.091700E+02
-2.001030E-01	-9.762069E-04	6.100800E+02
-2.000969E-01	-9.762069E-04	6.110900E+02
-2.000969E-01	-9.762683E-04	6.120000E+02
-2.000969E-01	-9.762683E-04	6.130300E+02
-2.000969E-01	-9.762683E-04	6.140100E+02
-2.000969E-01	-9.762683E-04	6.150700E+02
-2.000969E-01	-9.762069E-04	6.160900E+02
-2.000969E-01	-9.762683E-04	6.171000E+02
-2.000969E-01	-9.762683E-04	6.180300E+02
-2.000907E-01	-9.746708E-04	6.191400E+02
-2.000969E-01	-9.742408E-04	6.200200E+02
-2.000969E-01	-9.738107E-04	6.210700E+02
-2.000969E-01	-9.739336E-04	6.220800E+02
-2.000969E-01	-9.738722E-04	6.231300E+02
-2.000969E-01	-9.739336E-04	6.240300E+02
-2.000969E-01	-9.738107E-04	6.250100E+02
-2.000969E-01	-9.739336E-04	6.260500E+02
-2.000969E-01	-9.739951E-04	6.270900E+02
-2.000969E-01	-9.739951E-04	6.281300E+02
-2.000969E-01	-9.743023E-04	6.291300E+02
-2.000969E-01	-9.743637E-04	6.300000E+02
-2.000969E-01	-9.743023E-04	6.310200E+02
-2.000969E-01	-9.743023E-04	6.320800E+02
-2.000969E-01	-9.742408E-04	6.330900E+02
-2.000969E-01	-9.742408E-04	6.341300E+02
-2.000969E-01	-9.742408E-04	6.350300E+02
-2.001030E-01	-9.743637E-04	6.360400E+02
-2.000969E-01	-9.743023E-04	6.370800E+02
-2.000969E-01	-9.744251E-04	6.380300E+02
-2.000969E-01	-9.741793E-04	6.391400E+02
-2.000969E-01	-9.742408E-04	6.400300E+02
-2.000969E-01	-9.742408E-04	6.410500E+02
-2.000969E-01	-9.742408E-04	6.420800E+02
-2.000969E-01	-9.742408E-04	6.430300E+02
-2.000969E-01	-9.742408E-04	6.440600E+02
-2.000969E-01	-9.742408E-04	6.450900E+02
-2.000969E-01	-9.742408E-04	6.460300E+02
-2.000969E-01	-9.742408E-04	6.470500E+02
-2.000969E-01	-9.742408E-04	6.481000E+02
-2.000969E-01	-9.757768E-04	6.490800E+02
-2.000969E-01	-9.757768E-04	6.500000E+02
-2.000969E-01	-9.757768E-04	6.510300E+02
-2.000969E-01	-9.758382E-04	6.520400E+02
-2.000969E-01	-9.757768E-04	6.530500E+02
-2.001030E-01	-9.758382E-04	6.541000E+02
-2.000969E-01	-9.756538E-04	6.551400E+02
-2.000969E-01	-9.749781E-04	6.560400E+02
-2.000969E-01	-9.749781E-04	6.570900E+02
-2.000969E-01	-9.749166E-04	6.580400E+02
-2.000969E-01	-9.750396E-04	6.591400E+02
-2.000969E-01	-9.749166E-04	6.600400E+02
-2.000969E-01	-9.750396E-04	6.610200E+02
-2.000969E-01	-9.750396E-04	6.620800E+02
-2.000907E-01	-9.749781E-04	6.630900E+02
-2.001030E-01	-9.750396E-04	6.641400E+02
-2.000969E-01	-9.750396E-04	6.650400E+02
-2.000969E-01	-9.751010E-04	6.660900E+02
-2.000969E-01	-9.749781E-04	6.671000E+02
-2.000969E-01	-9.748552E-04	6.681400E+02
-2.000969E-01	-9.748552E-04	6.691400E+02
-2.000969E-01	-9.748552E-04	6.700400E+02
-2.000969E-01	-9.749781E-04	6.710200E+02
-2.000969E-01	-9.751010E-04	6.720900E+02
-2.001030E-01	-9.751010E-04	6.730200E+02
-2.000969E-01	-9.751624E-04	6.740400E+02
-2.000969E-01	-9.752853E-04	6.750200E+02
-2.000969E-01	-9.753467E-04	6.760800E+02
-2.000969E-01	-9.752853E-04	6.771000E+02
-2.000969E-01	-9.752853E-04	6.781400E+02
-2.000907E-01	-9.745480E-04	6.791400E+02
-2.000907E-01	-9.745480E-04	6.800400E+02
-2.000969E-01	-9.744865E-04	6.810900E+02
-2.000969E-01	-9.744865E-04	6.821000E+02
-2.000969E-01	-9.744252E-04	6.831400E+02
-2.001030E-01	-9.744252E-04	6.840300E+02
-2.000969E-01	-9.743638E-04	6.850500E+02
-2.000969E-01	-9.743022E-04	6.860700E+02
-2.000907E-01	-9.743022E-04	6.871400E+02
-2.000969E-01	-9.743022E-04	6.880400E+02
-2.000969E-01	-9.749781E-04	6.891400E+02
-2.000969E-01	-9.749781E-04	6.900400E+02
-2.000969E-01	-9.741794E-04	6.910400E+02
-2.000969E-01	-9.741180E-04	6.920800E+02
-2.000907E-01	-9.741794E-04	6.931400E+02
-2.000969E-01	-9.742408E-04	6.940400E+02
-2.001030E-01	-9.741794E-04	6.950900E+02
-2.000969E-01	-9.742408E-04	6.961200E+02
-2.000969E-01	-9.743022E-04	6.971400E+02
-2.000969E-01	-9.742408E-04	6.980600E+02
-2.000907E-01	-9.742408E-04	6.991500E+02
-2.000969E-01	-9.742408E-04	7.000400E+02
-2.000969E-01	-9.742408E-04	7.010800E+02
-2.000969E-01	-9.741180E-04	7.021000E+02
-2.000969E-01	-9.740565E-04	7.031400E+02
-2.000969E-01	-9.739950E-04	7.040400E+02
-2.000969E-01	-9.739337E-04	7.050900E+02
-2.000969E-01	-9.738721E-04	7.061000E+02
-2.000969E-01	-9.739337E-04	7.070400E+02
-2.000969E-01	-9.739337E-04	7.080900E+02
-2.000969E-01	-9.741794E-04	7.090900E+02
-2.000969E-01	-9.741180E-04	7.101000E+02
-2.000969E-01	-9.741794E-04	7.110100E+02
-2.000969E-01	-9.741794E-04	7.120700E+02
-2.000969E-01	-9.741180E-04	7.130900E+02
-2.000907E-01	-9.740565E-04	7.141000E+02
-2.000969E-01	-9.740565E-04	7.150400E+02
-2.000969E-01	-9.740565E-04	7.160200E+02
-2.000969E-01	-9.739336E-04	7.170300E+02
-2.000969E-01	-9.739336E-04	7.180900E+02
-2.000969E-01	-9.739336E-04	7.191000E+02
-2.000969E-01	-9.739951E-04	7.201000E+02
-2.000969E-01	-9.739951E-04	7.210000E+02
-2.000969E-01	-9.739336E-04	7.220100E+02
-2.000969E-01	-9.738722E-04	7.230400E+02
-2.000969E-01	-9.739336E-04	7.240600E+02
-2.000969E-01	-9.731349E-04	7.250000E+02
-2.000969E-01	-9.731349E-04	7.260400E+02
-2.001030E-01	-9.731349E-04	7.270900E+02
-2.000969E-01	-9.731964E-04	7.280000E+02
-2.000907E-01	-9.732579E-04	7.290900E+02
-2.000969E-01	-9.733808E-04	7.300000E+02
-2.000969E-01	-9.733192E-04	7.311100E+02
-2.000969E-01	-9.734422E-04	7.320400E+02
-2.000969E-01	-9.735035E-04	7.330400E+02
-2.000969E-01	-9.733808E-04	7.340600E+02
-2.000969E-01	-9.733192E-04	7.350000E+02
-2.000969E-01	-9.732579E-04	7.360500E+02
-2.000907E-01	-9.733192E-04	7.370300E+02
-2.000907E-01	-9.733808E-04	7.380000E+02
-2.000969E-01	-9.731964E-04	7.391000E+02
-2.001030E-01	-9.733192E-04	7.400100E+02
-2.001092E-01	-9.733192E-04	7.410500E+02
-2.001030E-01	-9.733808E-04	7.420500E+02
-2.001030E-01	-9.733808E-04	7.430900E+02
-2.001030E-01	-9.731964E-04	7.441000E+02
-2.000969E-01	-9.731964E-04	7.451000E+02
-2.000969E-01	-9.731964E-04	7.460500E+02
-2.001030E-01	-9.733808E-04	7.470500E+02
-2.001030E-01	-9.733192E-04	7.480900E+02
-2.000969E-01	-9.733192E-04	7.491000E+02
-2.000969E-01	-9.733192E-04	7.500000E+02
-2.000907E-01	-9.731964E-04	7.510000E+02
-2.000969E-01	-9.733192E-04	7.521500E+02
-2.000969E-01	-9.734422E-04	7.530500E+02
-2.000969E-01	-9.733808E-04	7.540500E+02
-2.000907E-01	-9.733192E-04	7.550700E+02
-2.000969E-01	-9.730735E-04	7.561000E+02
-2.000969E-01	-9.730735E-04	7.570000E+02
-2.000969E-01	-9.730121E-04	7.580500E+02
-2.000969E-01	-9.724592E-04	7.591500E+02
-2.000969E-01	-9.723362E-04	7.600500E+02
-2.000969E-01	-9.723362E-04	7.610700E+02
-2.000969E-01	-9.722747E-04	7.620000E+02
-2.000969E-01	-9.724592E-04	7.631500E+02
-2.000969E-01	-9.725205E-04	7.640500E+02
-2.000969E-01	-9.725205E-04	7.651000E+02
-2.000969E-01	-9.725205E-04	7.660000E+02
-2.000969E-01	-9.725205E-04	7.670500E+02
-2.000969E-01	-9.723977E-04	7.680300E+02
-2.000969E-01	-9.725205E-04	7.690000E+02
-2.000969E-01	-9.721518E-04	7.700000E+02
-2.000969E-01	-9.720905E-04	7.710500E+02
-2.000969E-01	-9.721518E-04	7.720500E+02
-2.000969E-01	-9.722134E-04	7.731000E+02
-2.000969E-01	-9.721518E-04	7.740000E+02
-2.000969E-01	-9.717832E-04	7.750100E+02
-2.000969E-01	-9.719675E-04	7.760500E+02
-2.000969E-01	-9.718447E-04	7.771000E+02
-2.000969E-01	-9.719675E-04	7.780000E+02
-2.000969E-01	-9.717218E-04	7.791100E+02
-2.001030E-01	-9.714761E-04	7.800500E+02
-2.001030E-01	-9.715375E-04	7.810200E+02
-2.001030E-01	-9.712917E-04	7.821100E+02
-2.001030E-01	-9.712304E-04	7.830500E+02
-2.001030E-01	-9.715988E-04	7.840500E+02
-2.001030E-01	-9.714761E-04	7.850300E+02
-2.000969E-01	-9.715988E-04	7.860700E+02
-2.001030E-01	-9.714147E-04	7.870000E+02
-2.001030E-01	-9.716604E-04	7.880400E+02
-2.000969E-01	-9.714760E-04	7.891600E+02
-2.000969E-01	-9.717832E-04	7.901000E+02
-2.000969E-01	-9.715374E-04	7.910000E+02
-2.000969E-01	-9.714147E-04	7.920000E+02
-2.001030E-01	-9.714760E-04	7.930500E+02
-2.000969E-01	-9.710460E-04	7.941000E+02
-2.000969E-01	-9.708617E-04	7.950800E+02
-2.000969E-01	-9.709231E-04	7.960100E+02
-2.000969E-01	-9.709231E-04	7.970500E+02
-2.000969E-01	-9.711074E-04	7.980400E+02
-2.000907E-01	-9.688955E-04	7.990600E+02
-2.000969E-01	-9.687113E-04	8.001100E+02
-2.001030E-01	-9.687113E-04	8.010100E+02
-2.001030E-01	-9.686498E-04	8.021600E+02
-2.000969E-01	-9.688955E-04	8.030600E+02
-2.000969E-01	-9.690799E-04	8.041000E+02
-2.000969E-01	-9.689571E-04	8.050800E+02
-2.000969E-01	-9.690799E-04	8.060000E+02
-2.001030E-01	-9.689571E-04	8.071600E+02
-2.000969E-01	-9.690184E-04	8.080200E+02
-2.000907E-01	-9.703702E-04	8.091600E+02
-2.000969E-01	-9.703702E-04	8.100600E+02
-2.000969E-01	-9.704315E-04	8.111100E+02
-2.000969E-01	-9.704315E-04	8.120100E+02
-2.001030E-01	-9.702473E-04	8.131600E+02
-2.000969E-01	-9.700015E-04	8.140600E+02
-2.000969E-01	-9.696943E-04	8.151100E+02
-2.000969E-01	-9.694486E-04	8.160100E+02
-2.000969E-01	-9.695100E-04	8.170400E+02
-2.000969E-01	-9.694486E-04	8.180600E+02
-2.001030E-01	-9.692642E-04	8.191600E+02
-2.000969E-01	-9.691414E-04	8.200600E+02
-2.001030E-01	-9.692029E-04	8.210300E+02
-2.000907E-01	-9.692029E-04	8.221100E+02
-2.000969E-01	-9.692642E-04	8.231000E+02
-2.000969E-01	-9.693257E-04	8.241100E+02
-2.000969E-01	-9.693257E-04	8.251600E+02
-2.000969E-01	-9.694486E-04	8.260600E+02
-2.000969E-01	-9.696329E-04	8.270400E+02
-2.000969E-01	-9.694486E-04	8.281100E+02
-2.000907E-01	-9.683426E-04	8.291100E+02
-2.000969E-01	-9.684656E-04	8.300300E+02
-2.000969E-01	-9.684042E-04	8.310700E+02
-2.001030E-01	-9.684042E-04	8.320100E+02
-2.000969E-01	-9.684656E-04	8.330100E+02
-2.000969E-01	-9.685269E-04	8.341600E+02
-2.000969E-01	-9.685269E-04	8.350700E+02
-2.000969E-01	-9.686499E-04	8.361100E+02
-2.001030E-01	-9.685885E-04	8.370100E+02
-2.000969E-01	-9.687727E-04	8.380600E+02
-2.000969E-01	-9.696329E-04	8.391600E+02
-2.000969E-01	-9.696943E-04	8.400200E+02
-2.001030E-01	-9.697557E-04	8.410400E+02
-2.000969E-01	-9.697557E-04	8.421100E+02
-2.000969E-01	-9.698786E-04	8.430100E+02
-2.000969E-01	-9.698172E-04	8.440500E+02
-2.000969E-01	-9.697557E-04	8.450700E+02
-2.000969E-01	-9.697557E-04	8.461100E+02
-2.001030E-01	-9.697557E-04	8.471100E+02
-2.000907E-01	-9.698172E-04	8.480000E+02
-2.000907E-01	-9.698786E-04	8.491600E+02
-2.000969E-01	-9.699401E-04	8.500600E+02
-2.001030E-01	-9.700015E-04	8.511000E+02
-2.000969E-01	-9.700015E-04	8.520100E+02
-2.000969E-01	-9.701244E-04	8.530600E+02
-2.000969E-01	-9.700015E-04	8.540700E+02
-2.000969E-01	-9.700630E-04	8.551100E+02
-2.000969E-01	-9.699401E-04	8.560100E+02
-2.000969E-01	-9.700630E-04	8.571600E+02
-2.000969E-01	-9.701244E-04	8.580600E+02
-2.000907E-01	-9.685270E-04	8.590700E+02
-2.000969E-01	-9.685270E-04	8.600500E+02
-2.000969E-01	-9.685884E-04	8.611100E+02
-2.000969E-01	-9.685270E-04	8.620100E+02
-2.000969E-01	-9.685270E-04	8.630300E+02
-2.001030E-01	-9.681584E-04	8.640700E+02
-2.000969E-01	-9.679741E-04	8.651100E+02
-2.001030E-01	-9.679741E-04	8.660300E+02
-2.000969E-01	-9.680354E-04	8.670700E+02
-2.000969E-01	-9.664380E-04	8.680000E+02
-2.001030E-01	-9.697558E-04	8.691200E+02
-2.001030E-01	-9.698787E-04	8.700200E+02
-2.001030E-01	-9.699401E-04	8.710700E+02
-2.001030E-01	-9.698787E-04	8.720800E+02
-2.001030E-01	-9.700015E-04	8.730100E+02
-2.001030E-01	-9.700015E-04	8.740500E+02
-2.001092E-01	-9.700015E-04	8.750500E+02
-2.001030E-01	-9.698787E-04	8.760100E+02
-2.001030E-01	-9.697558E-04	8.770100E+02
-2.001092E-01	-9.696329E-04	8.780200E+02
-2.001030E-01	-9.697558E-04	8.791700E+02
-2.001092E-01	-9.697558E-04	8.800800E+02
-2.001030E-01	-9.698787E-04	8.811100E+02
-2.001030E-01	-9.698787E-04	8.820100E+02
-2.001092E-01	-9.699401E-04	8.830300E+02
-2.001030E-01	-9.698787E-04	8.840800E+02
-2.001030E-01	-9.698787E-04	8.850200E+02
-2.001030E-01	-9.698787E-04	8.860200E+02
-2.001030E-01	-9.699401E-04	8.870700E+02
-2.001030E-01	-9.700015E-04	8.880500E+02
-2.000969E-01	-9.685269E-04	8.890700E+02
-2.000969E-01	-9.685884E-04	8.900300E+02
-2.000969E-01	-9.685884E-04	8.910400E+02
-2.001030E-01	-9.686499E-04	8.920800E+02
-2.000969E-01	-9.686499E-04	8.930100E+02
-2.000969E-01	-9.686499E-04	8.940200E+02
-2.000969E-01	-9.686499E-04	8.950600E+02
-2.001030E-01	-9.687728E-04	8.960700E+02
-2.000969E-01	-9.687112E-04	8.970000E+02
-2.000969E-01	-9.688955E-04	8.980200E+02
-2.000969E-01	-9.703087E-04	8.991700E+02
-2.000969E-01	-9.703087E-04	9.000700E+02
-2.000969E-01	-9.703087E-04	9.010500E+02
-2.001030E-01	-9.703087E-04	9.021200E+02
-2.000969E-01	-9.703701E-04	9.031000E+02
-2.000969E-01	-9.702474E-04	9.040200E+02
-2.000969E-01	-9.703701E-04	9.050700E+02
-2.000969E-01	-9.703701E-04	9.061200E+02
-2.000969E-01	-9.703701E-04	9.070200E+02
-2.001030E-01	-9.702474E-04	9.080700E+02
-2.001030E-01	-9.702472E-04	9.091700E+02
-2.001092E-01	-9.701859E-04	9.100300E+02
-2.001030E-01	-9.700629E-04	9.110800E+02
-2.001030E-01	-9.700015E-04	9.121000E+02
-2.001030E-01	-9.701244E-04	9.130300E+02
-2.001030E-01	-9.700629E-04	9.140800E+02
-2.001030E-01	-9.701244E-04	9.151200E+02
-2.001092E-01	-9.701244E-04	9.160300E+02
-2.001030E-01	-9.702472E-04	9.170700E+02
-2.001030E-01	-9.701244E-04	9.180500E+02
-2.000969E-01	-9.703701E-04	9.191200E+02
-2.001030E-01	-9.703701E-04	9.200200E+02
-2.000969E-01	-9.703701E-04	9.210200E+02
-2.001030E-01	-9.703701E-04	9.220600E+02
-2.000969E-01	-9.703087E-04	9.230700E+02
-2.000969E-01	-9.703701E-04	9.240400E+02
-2.000969E-01	-9.703087E-04	9.251200E+02
-2.001030E-01	-9.704317E-04	9.260200E+02
-2.000969E-01	-9.704317E-04	9.270700E+02
-2.000969E-01	-9.704317E-04	9.280500E+02
-2.000969E-01	-9.690799E-04	9.290200E+02
-2.000969E-01	-9.690799E-04	9.300300E+02
-2.000969E-01	-9.690799E-04	9.310400E+02
-2.000969E-01	-9.691414E-04	9.320800E+02
-2.000969E-01	-9.692027E-04	9.331200E+02
-2.000969E-01	-9.691414E-04	9.340200E+02
-2.000969E-01	-9.691414E-04	9.350400E+02
-2.000969E-01	-9.691414E-04	9.360900E+02
-2.000969E-01	-9.691414E-04	9.370200E+02
-2.000969E-01	-9.691414E-04	9.380200E+02
-2.001030E-01	-9.706159E-04	9.391800E+02
-2.001030E-01	-9.705545E-04	9.400200E+02
-2.001030E-01	-9.705545E-04	9.410900E+02
-2.001030E-01	-9.706159E-04	9.421200E+02
-2.001092E-01	-9.706774E-04	9.430000E+02
-2.001030E-01	-9.706159E-04	9.440300E+02
-2.001030E-01	-9.706159E-04	9.450700E+02
-2.001030E-01	-9.706159E-04	9.460200E+02
-2.001092E-01	-9.706159E-04	9.470100E+02
-2.001092E-01	-9.706159E-04	9.480800E+02
-2.001030E-01	-9.704930E-04	9.490800E+02
-2.001030E-01	-9.705544E-04	9.501200E+02
-2.001092E-01	-9.705544E-04	9.510200E+02
-2.001092E-01	-9.704930E-04	9.520100E+02
-2.001092E-01	-9.704930E-04	9.530700E+02
-2.001030E-01	-9.704930E-04	9.540600E+02
-2.001092E-01	-9.705544E-04	9.551200E+02
-2.001030E-01	-9.706159E-04	9.560000E+02
-2.001030E-01	-9.706159E-04	9.570300E+02
-2.001030E-01	-9.706159E-04	9.580400E+02
-2.000969E-01	-9.706774E-04	9.590800E+02
-2.000969E-01	-9.706774E-04	9.601300E+02
-2.001030E-01	-9.706774E-04	9.610200E+02
-2.000969E-01	-9.707388E-04	9.620100E+02
-2.000969E-01	-9.707388E-04	9.630700E+02
-2.000969E-01	-9.708002E-04	9.640800E+02
-2.001030E-01	-9.708617E-04	9.651300E+02
-2.001030E-01	-9.708617E-04	9.660200E+02
-2.000969E-01	-9.708617E-04	9.670400E+02
-2.001030E-01	-9.709232E-04	9.680900E+02
-2.000969E-01	-9.709846E-04	9.691300E+02
-2.000969E-01	-9.709846E-04	9.700300E+02
-2.000969E-01	-9.711689E-04	9.710200E+02
-2.000969E-01	-9.710460E-04	9.720100E+02
-2.000969E-01	-9.713532E-04	9.730400E+02
-2.001030E-01	-9.711689E-04	9.740900E+02
-2.000969E-01	-9.719061E-04	9.751300E+02
-2.001030E-01	-9.719676E-04	9.761300E+02
-2.000969E-01	-9.717832E-04	9.770100E+02
-2.000969E-01	-9.720290E-04	9.780900E+02
-2.000969E-01	-9.718447E-04	9.790400E+02
-2.001030E-01	-9.718447E-04	9.800900E+02
-2.001030E-01	-9.720290E-04	9.811200E+02
-2.001030E-01	-9.720290E-04	9.820500E+02
-2.001030E-01	-9.720903E-04	9.830800E+02
-2.000969E-01	-9.720903E-04	9.840800E+02
-2.001030E-01	-9.720290E-04	9.851300E+02
-2.001030E-01	-9.720290E-04	9.860300E+02
-2.001030E-01	-9.718447E-04	9.870100E+02
-2.000969E-01	-9.719676E-04	9.880800E+02
-2.000907E-01	-9.717832E-04	9.890700E+02
-2.001030E-01	-9.717832E-04	9.901300E+02
-2.001030E-01	-9.717218E-04	9.911300E+02
-2.000969E-01	-9.719062E-04	9.920300E+02
-2.000969E-01	-9.718447E-04	9.930800E+02
-2.001030E-01	-9.716604E-04	9.941300E+02
-2.000969E-01	-9.717832E-04	9.950300E+02
-2.001030E-01	-9.719062E-04	9.960800E+02
-2.000969E-01	-9.719062E-04	9.970900E+02
-2.001030E-01	-9.720291E-04	9.981000E+02
-2.000907E-01	-9.711688E-04	9.991300E+02
-2.000969E-01	-9.712302E-04	1.000040E+03
-2.001030E-01	-9.712917E-04	1.001090E+03
-2.000969E-01	-9.712302E-04	1.002090E+03
-2.000969E-01	-9.712917E-04	1.003030E+03
-2.000969E-01	-9.712917E-04	1.004010E+03
-2.000969E-01	-9.712302E-04	1.005080E+03
-2.000969E-01	-9.712302E-04	1.006130E+03
-2.001030E-01	-9.712917E-04	1.007030E+03
-2.000969E-01	-9.711688E-04	1.008030E+03
-2.001030E-01	-9.718447E-04	1.009130E+03
-2.001092E-01	-9.718447E-04	1.010030E+03
-2.001030E-01	-9.719676E-04	1.011030E+03
-2.001092E-01	-9.719676E-04	1.012010E+03
-2.001030E-01	-9.719061E-04	1.013050E+03
-2.001030E-01	-9.719676E-04	1.014090E+03
-2.001030E-01	-9.719676E-04	1.015030E+03
-2.001030E-01	-9.719676E-04	1.016030E+03
-2.001030E-01	-9.720290E-04	1.017010E+03
-2.001092E-01	-9.719676E-04	1.018080E+03
-2.000846E-01	-9.706774E-04	1.019090E+03
-2.000908E-01	-9.707388E-04	1.020090E+03
-2.000908E-01	-9.706774E-04	1.021130E+03
-2.000908E-01	-9.707388E-04	1.022030E+03
-2.000969E-01	-9.706774E-04	1.023080E+03
-2.000969E-01	-9.707388E-04	1.024090E+03
-2.000969E-01	-9.706774E-04	1.025080E+03
-2.000969E-01	-9.706774E-04	1.026080E+03
-2.000908E-01	-9.706774E-04	1.027000E+03
-2.000908E-01	-9.706159E-04	1.028010E+03
-2.000969E-01	-9.720291E-04	1.029140E+03
-2.000969E-01	-9.719675E-04	1.030050E+03
-2.000969E-01	-9.720291E-04	1.031090E+03
-2.000969E-01	-9.720291E-04	1.032030E+03
-2.000969E-01	-9.720291E-04	1.033050E+03
-2.001030E-01	-9.720905E-04	1.034080E+03
-2.000969E-01	-9.720905E-04	1.035140E+03
-2.001030E-01	-9.720291E-04	1.036040E+03
-2.001030E-01	-9.720905E-04	1.037050E+03
-2.000969E-01	-9.721518E-04	1.038080E+03
-2.000969E-01	-9.720290E-04	1.039080E+03
-2.000969E-01	-9.720903E-04	1.040090E+03
-2.000969E-01	-9.720903E-04	1.041140E+03
-2.000969E-01	-9.721519E-04	1.042040E+03
-2.000969E-01	-9.722133E-04	1.043050E+03
-2.000969E-01	-9.720903E-04	1.044110E+03
-2.001030E-01	-9.720903E-04	1.045000E+03
