CORRW ASCII
  CorrWare for Windows: Version 3.5f
  Potentiostatic	[-0.6 Ref,3600 Sec][default]	700C_600mV_IV.cor
  Date: 11-04-2019    Time: 19:12:57
   
   
  Open Circuit Potential (V): 0.0034
  Begin Information:          Cell Information
    Surface Area:             1
    Density:                  0
    Weight:                   0
    Polarity:                 0
    PolarityI:                0
    Corrosion Unit Type:      0
    Reference Type:           0
    Reference Potential:      0
    User-Defined Potential:   0
    Stern-Geary:              26
  End Information:            Cell Information
  Begin Pstat:                1287
    Pstat Title:              Instrument #1
    Booster Type:             0
    Booster Name:             None
    Current Range:            0
    Current Limit:            0
    Current LimitType:        0
    Sweep Type:               0
    Use Error Beep:           1
    Auxilary Type:            0
    iR Comp. Type:            0
    iR Ohms:                  0
    iR Time:                  27
    iR Ratio:                 255
    LP Filter Type:           1
    Drift Correction:         1
    Null Correction:          0
    Pstat Bandwidth Type:     2
    Gstat Bandwidth Type:     2
    External Input:           0
    SafetyMinV:               0
    SafetyMaxV:               10
    SafetyMinI:               0
    SafetyMaxI:               4
    SafetyMinQ:               0
    SafetyMaxQ:               1000
    SafetyMinT:               0
    SafetyMaxT:               50
    SafetyChT:                0
    SafetyMinVUse:            0
    SafetyMaxVUse:            0
    SafetyMinIUse:            0
    SafetyMaxIUse:            0
    SafetyMinQUse:            0
    SafetyMaxQUse:            0
    SafetyMinTUse:            0
    SafetyMaxTUse:            0
  End Pstat:                  1287
  Begin Experiment:           Potentiostatic	[-0.6 Ref,3600 Sec][default]	700C_600mV_IV.cor
    Data File:                \\ANALYSIS\ANALYSIS_Data\191101_Amezawa\fr_XAS\DPB1\100% O2\Electrochem\700C_600mV_IV.cor
    Data Append:              0
    Comment Lines:            0
    Potential:                -0.6
    Potential Type:           1
    Total Time:               3600
    Time Units:               0
    Time Marker:              -1
    Measure Rate Type:        1
    Measure Rate #1:          2000
    Measure Rate #2:          1
    Measure Rate #3:          0.1
    Measure Rate #4:          2
    Use Threshold:            0
    Threshold I_Min:          -15
    Threshold I_Max:          15
    Threshold Delta:          5
    Threshold Time:           60
    Copy AuxV:                0
    Axes Type:                1
    Use Custom Pstat:         0
  End Experiment:             Potentiostatic	[-0.6 Ref,3600 Sec][default]	700C_600mV_IV.cor
  Data Points:                408
  E(Volts)	I(A/cm2)	T(Seconds)
End Comments
-5.691035E-01	-3.410716E-03	0.000000E+00
-6.003636E-01	-3.925222E-03	1.100000E+00
-6.003636E-01	-4.011792E-03	2.030000E+00
-6.003636E-01	-4.049244E-03	3.080000E+00
-6.003636E-01	-4.063366E-03	4.080000E+00
-6.003636E-01	-4.068891E-03	5.100000E+00
-6.003636E-01	-4.071347E-03	6.030000E+00
-6.003636E-01	-4.072575E-03	7.080000E+00
-6.003636E-01	-4.073803E-03	8.060000E+00
-6.003636E-01	-4.079329E-03	9.080000E+00
-6.003636E-01	-4.080557E-03	1.009000E+01
-6.003636E-01	-4.081171E-03	1.103000E+01
-6.003636E-01	-4.081784E-03	1.201000E+01
-6.003636E-01	-4.082398E-03	1.305000E+01
-6.003636E-01	-4.083013E-03	1.408000E+01
-6.003636E-01	-4.083627E-03	1.513000E+01
-6.003636E-01	-4.084241E-03	1.602000E+01
-6.003636E-01	-4.084855E-03	1.705000E+01
-6.003636E-01	-4.085469E-03	1.806000E+01
-6.003022E-01	-4.085468E-03	1.904000E+01
-6.003636E-01	-4.086082E-03	2.008000E+01
-6.003636E-01	-4.086697E-03	2.106000E+01
-6.003636E-01	-4.087310E-03	2.203000E+01
-6.003636E-01	-4.087924E-03	2.308000E+01
-6.003636E-01	-4.088538E-03	2.407000E+01
-6.003636E-01	-4.087924E-03	2.510000E+01
-6.003636E-01	-4.087924E-03	2.604000E+01
-6.003636E-01	-4.087924E-03	2.708000E+01
-6.003636E-01	-4.088538E-03	2.808000E+01
-6.004250E-01	-4.089152E-03	2.908000E+01
-6.004250E-01	-4.089152E-03	3.003000E+01
-6.004250E-01	-4.089766E-03	3.104000E+01
-6.004250E-01	-4.090380E-03	3.209000E+01
-6.004250E-01	-4.090995E-03	3.305000E+01
-6.004250E-01	-4.090995E-03	3.407000E+01
-6.004250E-01	-4.090995E-03	3.500000E+01
-6.003636E-01	-4.090995E-03	3.603000E+01
-6.004250E-01	-4.091608E-03	3.705000E+01
-6.004250E-01	-4.092223E-03	3.809000E+01
-6.004250E-01	-4.090380E-03	3.908000E+01
-6.004250E-01	-4.090380E-03	4.004000E+01
-6.004250E-01	-4.090995E-03	4.106000E+01
-6.004250E-01	-4.090995E-03	4.204000E+01
-6.004250E-01	-4.090380E-03	4.308000E+01
-6.004250E-01	-4.090380E-03	4.409000E+01
-6.004250E-01	-4.087924E-03	4.500000E+01
-6.004250E-01	-4.087310E-03	4.600000E+01
-6.004250E-01	-4.088538E-03	4.704000E+01
-6.004250E-01	-4.088538E-03	4.804000E+01
-6.004250E-01	-4.090995E-03	4.903000E+01
-6.004250E-01	-4.092223E-03	5.003000E+01
-6.004250E-01	-4.092223E-03	5.109000E+01
-6.004250E-01	-4.092223E-03	5.200000E+01
-6.004250E-01	-4.092836E-03	5.304000E+01
-6.004250E-01	-4.092836E-03	5.402000E+01
-6.004250E-01	-4.093450E-03	5.505000E+01
-6.004250E-01	-4.093450E-03	5.609000E+01
-6.004250E-01	-4.093450E-03	5.700000E+01
-6.004864E-01	-4.093450E-03	5.803000E+01
-6.003636E-01	-4.092836E-03	5.908000E+01
-6.003636E-01	-4.092836E-03	6.010000E+01
-6.003636E-01	-4.092836E-03	6.103000E+01
-6.003636E-01	-4.093450E-03	6.209000E+01
-6.003636E-01	-4.092836E-03	6.306000E+01
-6.003636E-01	-4.093450E-03	6.400000E+01
-6.003636E-01	-4.093450E-03	6.510000E+01
-6.004250E-01	-4.093450E-03	6.600000E+01
-6.004250E-01	-4.093450E-03	6.703000E+01
-6.003636E-01	-4.094064E-03	6.801000E+01
-6.003636E-01	-4.087924E-03	6.904000E+01
-6.003636E-01	-4.087310E-03	7.009000E+01
-6.003636E-01	-4.086697E-03	7.107000E+01
-6.003636E-01	-4.086697E-03	7.211000E+01
-6.003636E-01	-4.086697E-03	7.304000E+01
-6.003636E-01	-4.087924E-03	7.403000E+01
-6.003636E-01	-4.088538E-03	7.505000E+01
-6.003636E-01	-4.087924E-03	7.608000E+01
-6.004250E-01	-4.088538E-03	7.710000E+01
-6.003636E-01	-4.088538E-03	7.804000E+01
-6.004250E-01	-4.094064E-03	7.904000E+01
-6.004250E-01	-4.105730E-03	8.009000E+01
-6.004250E-01	-4.106957E-03	8.107000E+01
-6.004250E-01	-4.107572E-03	8.200000E+01
-6.004250E-01	-4.107572E-03	8.304000E+01
-6.004250E-01	-4.111869E-03	8.406000E+01
-6.004250E-01	-4.113711E-03	8.510000E+01
-6.004250E-01	-4.114325E-03	8.600000E+01
-6.004250E-01	-4.115553E-03	8.705000E+01
-6.004250E-01	-4.116167E-03	8.809000E+01
-6.004250E-01	-4.108799E-03	8.904000E+01
-6.004250E-01	-4.108799E-03	9.009000E+01
-6.004250E-01	-4.109413E-03	9.107000E+01
-6.004250E-01	-4.109413E-03	9.200000E+01
-6.004250E-01	-4.110027E-03	9.310000E+01
-6.004250E-01	-4.110027E-03	9.400000E+01
-6.004250E-01	-4.108799E-03	9.500000E+01
-6.004250E-01	-4.107571E-03	9.605000E+01
-6.004250E-01	-4.108185E-03	9.702000E+01
-6.004250E-01	-4.108185E-03	9.806000E+01
-6.003636E-01	-4.114325E-03	9.904000E+01
-6.003636E-01	-4.114939E-03	1.001000E+02
-6.003636E-01	-4.115553E-03	1.010700E+02
-6.003636E-01	-4.115553E-03	1.020800E+02
-6.003636E-01	-4.116167E-03	1.030100E+02
-6.003636E-01	-4.116167E-03	1.040500E+02
-6.003636E-01	-4.116167E-03	1.050900E+02
-6.003636E-01	-4.116781E-03	1.060700E+02
-6.003636E-01	-4.116781E-03	1.070000E+02
-6.003636E-01	-4.116781E-03	1.080500E+02
-6.003636E-01	-4.117395E-03	1.090500E+02
-6.003636E-01	-4.116781E-03	1.100400E+02
-6.003636E-01	-4.116781E-03	1.111000E+02
-6.003636E-01	-4.117395E-03	1.120600E+02
-6.003636E-01	-4.116781E-03	1.130000E+02
-6.003636E-01	-4.116781E-03	1.140100E+02
-6.003636E-01	-4.116167E-03	1.150300E+02
-6.003636E-01	-4.116781E-03	1.160000E+02
-6.003636E-01	-4.116781E-03	1.170000E+02
-6.003636E-01	-4.116167E-03	1.180500E+02
-6.003636E-01	-4.116781E-03	1.190500E+02
-6.003636E-01	-4.115553E-03	1.201000E+02
-6.003636E-01	-4.114939E-03	1.210000E+02
-6.003636E-01	-4.114325E-03	1.220500E+02
-6.004250E-01	-4.114325E-03	1.231000E+02
-6.003636E-01	-4.114939E-03	1.240800E+02
-6.003636E-01	-4.115553E-03	1.250000E+02
-6.003636E-01	-4.115553E-03	1.260500E+02
-6.003636E-01	-4.115553E-03	1.270300E+02
-6.003636E-01	-4.115553E-03	1.281000E+02
-6.004250E-01	-4.115553E-03	1.290500E+02
-6.004864E-01	-4.116167E-03	1.301000E+02
-6.004250E-01	-4.116167E-03	1.310000E+02
-6.004250E-01	-4.115553E-03	1.320500E+02
-6.004250E-01	-4.115553E-03	1.330500E+02
-6.004250E-01	-4.115553E-03	1.341000E+02
-6.004250E-01	-4.116167E-03	1.350800E+02
-6.004864E-01	-4.116167E-03	1.360500E+02
-6.004250E-01	-4.116167E-03	1.371000E+02
-6.004250E-01	-4.116167E-03	1.380000E+02
-6.003636E-01	-4.115553E-03	1.390000E+02
-6.003636E-01	-4.116167E-03	1.400500E+02
-6.003636E-01	-4.115553E-03	1.410600E+02
-6.003636E-01	-4.115553E-03	1.420000E+02
-6.003636E-01	-4.115553E-03	1.430000E+02
-6.003636E-01	-4.115553E-03	1.440500E+02
-6.003636E-01	-4.114939E-03	1.450300E+02
-6.003636E-01	-4.114325E-03	1.460700E+02
-6.003636E-01	-4.114325E-03	1.470800E+02
-6.003636E-01	-4.114325E-03	1.480500E+02
-6.004250E-01	-4.106957E-03	1.490000E+02
-6.004250E-01	-4.106957E-03	1.501200E+02
-6.004250E-01	-4.108185E-03	1.510500E+02
-6.004250E-01	-4.108185E-03	1.520300E+02
-6.004250E-01	-4.108185E-03	1.530000E+02
-6.004250E-01	-4.108185E-03	1.540200E+02
-6.004250E-01	-4.108185E-03	1.550500E+02
-6.004250E-01	-4.108799E-03	1.561000E+02
-6.004250E-01	-4.108799E-03	1.570200E+02
-6.004250E-01	-4.108799E-03	1.580500E+02
-6.004250E-01	-4.115553E-03	1.590500E+02
-6.004250E-01	-4.114939E-03	1.600700E+02
-6.004250E-01	-4.114939E-03	1.610100E+02
-6.004250E-01	-4.115553E-03	1.620500E+02
-6.004250E-01	-4.114939E-03	1.630500E+02
-6.004250E-01	-4.115553E-03	1.641000E+02
-6.004250E-01	-4.114939E-03	1.650000E+02
-6.004250E-01	-4.114939E-03	1.660700E+02
-6.004250E-01	-4.114939E-03	1.670300E+02
-6.004250E-01	-4.114939E-03	1.680500E+02
-6.003636E-01	-4.113097E-03	1.690100E+02
-6.003636E-01	-4.113097E-03	1.700500E+02
-6.003636E-01	-4.112483E-03	1.710400E+02
-6.003636E-01	-4.112483E-03	1.720800E+02
-6.003636E-01	-4.111869E-03	1.730000E+02
-6.003636E-01	-4.111869E-03	1.740200E+02
-6.003636E-01	-4.110641E-03	1.750100E+02
-6.003636E-01	-4.110641E-03	1.760600E+02
-6.003636E-01	-4.110027E-03	1.771000E+02
-6.003636E-01	-4.110027E-03	1.780000E+02
-6.003636E-01	-4.104502E-03	1.790000E+02
-6.003636E-01	-4.104502E-03	1.800100E+02
-6.003636E-01	-4.103887E-03	1.810500E+02
-6.003636E-01	-4.103887E-03	1.820600E+02
-6.003636E-01	-4.103274E-03	1.831100E+02
-6.003636E-01	-4.103274E-03	1.840100E+02
-6.003636E-01	-4.103274E-03	1.850100E+02
-6.003636E-01	-4.103274E-03	1.860600E+02
-6.004250E-01	-4.103274E-03	1.870600E+02
-6.003636E-01	-4.102659E-03	1.880100E+02
-6.003636E-01	-4.110027E-03	1.890100E+02
-6.004250E-01	-4.110027E-03	1.900000E+02
-6.003636E-01	-4.110641E-03	1.910600E+02
-6.003636E-01	-4.111256E-03	1.921000E+02
-6.003636E-01	-4.110641E-03	1.930000E+02
-6.003636E-01	-4.111256E-03	1.940600E+02
-6.003636E-01	-4.111869E-03	1.950600E+02
-6.003636E-01	-4.111869E-03	1.960400E+02
-6.003636E-01	-4.111869E-03	1.970700E+02
-6.003636E-01	-4.114325E-03	1.980100E+02
-6.004250E-01	-4.108185E-03	1.990500E+02
-6.004250E-01	-4.108185E-03	2.001100E+02
-6.004250E-01	-4.108799E-03	2.010100E+02
-6.004864E-01	-4.108799E-03	2.020500E+02
-6.004864E-01	-4.108185E-03	2.030600E+02
-6.004250E-01	-4.108799E-03	2.040700E+02
-6.004250E-01	-4.108799E-03	2.050100E+02
-6.004250E-01	-4.108185E-03	2.060200E+02
-6.004250E-01	-4.108185E-03	2.070500E+02
-6.004864E-01	-4.108185E-03	2.080600E+02
-6.004250E-01	-4.114325E-03	2.090600E+02
-6.004250E-01	-4.114325E-03	2.100100E+02
-6.004250E-01	-4.114325E-03	2.110600E+02
-6.004864E-01	-4.113711E-03	2.120400E+02
-6.004250E-01	-4.113097E-03	2.130800E+02
-6.004250E-01	-4.111869E-03	2.140000E+02
-6.004250E-01	-4.111869E-03	2.151600E+02
-6.004864E-01	-4.111256E-03	2.160600E+02
-6.004250E-01	-4.110641E-03	2.171100E+02
-6.004250E-01	-4.110641E-03	2.180100E+02
-6.003636E-01	-4.105730E-03	2.190100E+02
-6.003636E-01	-4.105730E-03	2.200300E+02
-6.003636E-01	-4.105730E-03	2.210600E+02
-6.003636E-01	-4.105730E-03	2.221100E+02
-6.003636E-01	-4.105730E-03	2.230100E+02
-6.003636E-01	-4.105730E-03	2.240000E+02
-6.003636E-01	-4.105116E-03	2.250200E+02
-6.003636E-01	-4.105116E-03	2.260600E+02
-6.003636E-01	-4.105116E-03	2.270700E+02
-6.004250E-01	-4.104502E-03	2.280100E+02
-6.003636E-01	-4.109413E-03	2.290100E+02
-6.003636E-01	-4.109413E-03	2.300100E+02
-6.003636E-01	-4.108799E-03	2.310600E+02
-6.003636E-01	-4.110027E-03	2.321100E+02
-6.003636E-01	-4.110027E-03	2.330100E+02
-6.003636E-01	-4.110641E-03	2.340200E+02
-6.003636E-01	-4.110641E-03	2.350200E+02
-6.003636E-01	-4.111256E-03	2.360600E+02
-6.003636E-01	-4.110641E-03	2.370500E+02
-6.003636E-01	-4.110641E-03	2.380100E+02
-6.003636E-01	-4.111256E-03	2.390200E+02
-6.003636E-01	-4.111869E-03	2.400600E+02
-6.003636E-01	-4.111869E-03	2.410700E+02
-6.003636E-01	-4.111869E-03	2.420800E+02
-6.003636E-01	-4.111256E-03	2.430100E+02
-6.003636E-01	-4.111869E-03	2.440200E+02
-6.003636E-01	-4.111256E-03	2.451100E+02
-6.003636E-01	-4.111256E-03	2.460100E+02
-6.003636E-01	-4.111256E-03	2.470500E+02
-6.003636E-01	-4.111256E-03	2.480600E+02
-6.004250E-01	-4.111256E-03	2.490600E+02
-6.003636E-01	-4.111256E-03	2.500700E+02
-6.003636E-01	-4.110641E-03	2.511100E+02
-6.003636E-01	-4.110641E-03	2.520100E+02
-6.004250E-01	-4.110641E-03	2.530600E+02
-6.003636E-01	-4.110027E-03	2.540200E+02
-6.003636E-01	-4.108799E-03	2.550100E+02
-6.003636E-01	-4.108185E-03	2.560200E+02
-6.003636E-01	-4.108185E-03	2.570800E+02
-6.003636E-01	-4.107572E-03	2.580100E+02
-6.003636E-01	-4.107572E-03	2.590100E+02
-6.003636E-01	-4.107572E-03	2.600600E+02
-6.003636E-01	-4.107572E-03	2.610400E+02
-6.003636E-01	-4.106957E-03	2.621200E+02
-6.003636E-01	-4.106957E-03	2.630100E+02
-6.003636E-01	-4.106343E-03	2.640500E+02
-6.003636E-01	-4.105730E-03	2.650700E+02
-6.003636E-01	-4.105730E-03	2.660700E+02
-6.003636E-01	-4.105116E-03	2.670900E+02
-6.004250E-01	-4.104502E-03	2.680900E+02
-6.004250E-01	-4.099590E-03	2.690200E+02
-6.004250E-01	-4.098976E-03	2.700300E+02
-6.004250E-01	-4.098976E-03	2.710500E+02
-6.004250E-01	-4.098362E-03	2.720700E+02
-6.004250E-01	-4.098976E-03	2.730200E+02
-6.004250E-01	-4.098362E-03	2.740000E+02
-6.004250E-01	-4.099590E-03	2.750300E+02
-6.004250E-01	-4.100204E-03	2.760200E+02
-6.004250E-01	-4.100204E-03	2.770300E+02
-6.004250E-01	-4.100818E-03	2.780600E+02
-6.003636E-01	-4.100204E-03	2.790000E+02
-6.003636E-01	-4.100818E-03	2.800300E+02
-6.004250E-01	-4.100204E-03	2.810700E+02
-6.003636E-01	-4.100204E-03	2.821200E+02
-6.003636E-01	-4.100204E-03	2.830800E+02
-6.003636E-01	-4.100818E-03	2.840900E+02
-6.003636E-01	-4.100818E-03	2.850400E+02
-6.003636E-01	-4.100204E-03	2.860500E+02
-6.003636E-01	-4.100818E-03	2.871200E+02
-6.003636E-01	-4.100204E-03	2.880800E+02
-6.003636E-01	-4.106343E-03	2.890700E+02
-6.003636E-01	-4.106343E-03	2.900200E+02
-6.003636E-01	-4.106343E-03	2.910000E+02
-6.003636E-01	-4.106343E-03	2.920700E+02
-6.003636E-01	-4.106343E-03	2.930500E+02
-6.003636E-01	-4.105730E-03	2.940200E+02
-6.003636E-01	-4.106343E-03	2.950000E+02
-6.003636E-01	-4.104502E-03	2.960300E+02
-6.003636E-01	-4.104502E-03	2.970600E+02
-6.003636E-01	-4.103888E-03	2.981200E+02
-6.004250E-01	-4.097134E-03	2.990700E+02
-6.004250E-01	-4.097134E-03	3.001200E+02
-6.004250E-01	-4.097134E-03	3.010200E+02
-6.004250E-01	-4.097134E-03	3.020000E+02
-6.004864E-01	-4.096520E-03	3.030300E+02
-6.004250E-01	-4.096520E-03	3.040500E+02
-6.004250E-01	-4.094678E-03	3.051200E+02
-6.004250E-01	-4.094678E-03	3.060200E+02
-6.004250E-01	-4.095292E-03	3.070700E+02
-6.004250E-01	-4.095292E-03	3.080700E+02
-6.004250E-01	-4.100818E-03	3.090800E+02
-6.004250E-01	-4.100818E-03	3.100600E+02
-6.004250E-01	-4.100818E-03	3.110800E+02
-6.004250E-01	-4.100204E-03	3.120200E+02
-6.004250E-01	-4.100204E-03	3.130700E+02
-6.004250E-01	-4.100204E-03	3.140500E+02
-6.004250E-01	-4.100204E-03	3.151200E+02
-6.004250E-01	-4.101431E-03	3.160200E+02
-6.004250E-01	-4.101431E-03	3.170700E+02
-6.004864E-01	-4.101431E-03	3.180500E+02
-6.003636E-01	-4.098362E-03	3.190700E+02
-6.003636E-01	-4.098362E-03	3.201200E+02
-6.003636E-01	-4.098362E-03	3.211000E+02
-6.003636E-01	-4.098362E-03	3.220200E+02
-6.003636E-01	-4.098362E-03	3.230700E+02
-6.003636E-01	-4.098362E-03	3.240600E+02
-6.003636E-01	-4.098362E-03	3.250900E+02
-6.003636E-01	-4.098362E-03	3.260200E+02
-6.003636E-01	-4.098362E-03	3.270200E+02
-6.003636E-01	-4.098362E-03	3.280700E+02
-6.003636E-01	-4.101431E-03	3.290200E+02
-6.003636E-01	-4.100817E-03	3.300700E+02
-6.003636E-01	-4.100817E-03	3.310600E+02
-6.003636E-01	-4.100204E-03	3.320200E+02
-6.003636E-01	-4.100204E-03	3.330100E+02
-6.003636E-01	-4.100204E-03	3.340800E+02
-6.003636E-01	-4.100204E-03	3.350200E+02
-6.003636E-01	-4.100204E-03	3.360200E+02
-6.003636E-01	-4.100204E-03	3.370800E+02
-6.003636E-01	-4.099590E-03	3.380800E+02
-6.003636E-01	-4.095906E-03	3.390700E+02
-6.004250E-01	-4.095906E-03	3.401300E+02
-6.003636E-01	-4.095906E-03	3.410300E+02
-6.003636E-01	-4.095292E-03	3.420500E+02
-6.003636E-01	-4.095906E-03	3.430700E+02
-6.003636E-01	-4.094678E-03	3.440600E+02
-6.003636E-01	-4.094678E-03	3.450300E+02
-6.003636E-01	-4.095292E-03	3.460000E+02
-6.003636E-01	-4.094678E-03	3.470800E+02
-6.003636E-01	-4.095292E-03	3.480600E+02
-6.003636E-01	-4.092222E-03	3.490800E+02
-6.003636E-01	-4.092836E-03	3.501300E+02
-6.003636E-01	-4.091608E-03	3.510300E+02
-6.003636E-01	-4.091608E-03	3.520200E+02
-6.003636E-01	-4.091608E-03	3.530400E+02
-6.003636E-01	-4.091608E-03	3.540600E+02
-6.003636E-01	-4.091608E-03	3.550900E+02
-6.003636E-01	-4.091608E-03	3.560900E+02
-6.003636E-01	-4.088538E-03	3.571000E+02
-6.004250E-01	-4.088538E-03	3.580200E+02
-6.003636E-01	-4.088538E-03	3.590200E+02
-6.003636E-01	-4.087924E-03	3.600400E+02
-6.004250E-01	-4.088538E-03	3.610700E+02
-6.003636E-01	-4.087924E-03	3.621300E+02
-6.004250E-01	-4.087310E-03	3.630200E+02
-6.003636E-01	-4.087310E-03	3.640800E+02
-6.004250E-01	-4.087310E-03	3.650400E+02
-6.003636E-01	-4.087310E-03	3.660600E+02
-6.003636E-01	-4.087310E-03	3.670900E+02
-6.003636E-01	-4.087310E-03	3.680300E+02
-6.004250E-01	-4.094064E-03	3.690800E+02
-6.004250E-01	-4.093450E-03	3.700700E+02
-6.004250E-01	-4.093450E-03	3.711000E+02
-6.004864E-01	-4.093450E-03	3.721000E+02
-6.004250E-01	-4.093450E-03	3.730000E+02
-6.004250E-01	-4.091608E-03	3.740800E+02
-6.004250E-01	-4.091608E-03	3.750800E+02
-6.004250E-01	-4.091608E-03	3.760600E+02
-6.004250E-01	-4.092223E-03	3.771300E+02
-6.004250E-01	-4.091608E-03	3.780300E+02
-6.004250E-01	-4.092223E-03	3.790300E+02
-6.004250E-01	-4.091608E-03	3.800800E+02
-6.004250E-01	-4.090995E-03	3.810800E+02
-6.004250E-01	-4.090995E-03	3.820600E+02
-6.004250E-01	-4.090995E-03	3.830900E+02
-6.004250E-01	-4.090995E-03	3.840300E+02
-6.004250E-01	-4.090995E-03	3.850100E+02
-6.004864E-01	-4.090995E-03	3.860500E+02
-6.004250E-01	-4.090995E-03	3.870700E+02
-6.004250E-01	-4.090995E-03	3.880900E+02
-6.004250E-01	-4.089766E-03	3.890700E+02
-6.004864E-01	-4.090380E-03	3.901000E+02
-6.004250E-01	-4.090380E-03	3.910400E+02
-6.004250E-01	-4.089766E-03	3.920800E+02
-6.004250E-01	-4.090380E-03	3.930400E+02
-6.004250E-01	-4.089766E-03	3.940700E+02
-6.004250E-01	-4.090380E-03	3.950700E+02
-6.004250E-01	-4.089766E-03	3.960300E+02
-6.004250E-01	-4.089152E-03	3.970100E+02
-6.004250E-01	-4.089152E-03	3.980900E+02
-6.004250E-01	-4.089152E-03	3.990400E+02
-6.004250E-01	-4.089152E-03	4.000100E+02
-6.004250E-01	-4.089152E-03	4.010500E+02
-6.004864E-01	-4.089152E-03	4.020900E+02
-6.004250E-01	-4.089152E-03	4.030300E+02
-6.004250E-01	-4.088538E-03	4.040900E+02
-6.004864E-01	-4.088538E-03	4.050900E+02
-6.004250E-01	-4.088538E-03	4.061000E+02
-6.004250E-01	-4.088538E-03	4.070100E+02
